,PC1,PC2,PC3,Cluster_11,Cluster_7
0,0.06898824905287157,0.400583216277074,0.7439173791178854,0,4
1,0.0826646290676104,0.37642354820191704,0.7094880325685561,0,4
2,0.11808469045434554,0.3259678213568331,0.660768902920748,0,4
3,0.1967594590077472,0.23330010467603274,0.5948040978613541,0,4
4,0.32925296606192334,0.09802888660973913,0.5212492397361073,0,4
5,0.5130297818130882,-0.06692945071214385,0.45958386396856504,0,4
6,0.7331679996185911,-0.2441422808549674,0.42973703155987747,0,4
7,0.9635773925149584,-0.42263884432760385,0.4398772861890989,0,4
8,1.1666652199859129,-0.605019133753403,0.47760046149718943,0,4
9,1.2920298671745178,-0.8064423668128798,0.5100201209531874,0,4
10,1.2770714949903466,-1.0452636542855158,0.4943466242292691,0,4
11,1.0185259804269542,-1.2967497751478858,0.5281282913897588,0,4
12,0.6146255823784452,-1.5476943399160872,0.3348494256246374,8,0
13,-0.11836597104496273,-1.823979029797944,0.039702156437603574,8,0
14,-1.271266761378085,-2.044475483222143,-0.309318777502446,8,0
15,-2.8491154505886147,-2.109465884951855,-0.676057141226455,4,0
16,-4.7111059411101355,-1.917321358412414,-0.967587300915003,10,2
17,-6.687238029716527,-1.3914621472045827,-1.0901871119452118,3,2
18,-8.577416465199727,-0.4708944696371879,-0.9646920988917934,7,2
19,-10.159795872240231,0.8313353048733644,-0.5775687064598336,7,3
20,-11.205971372185168,2.3755698359347974,-0.04034152564472052,7,3
21,-11.556508685108081,4.045261975732609,0.5395172074188233,1,3
22,-11.131101389719861,5.685388408793212,1.0192716884496253,1,3
23,-9.959995541110779,7.1072768499638475,1.2939616813189896,1,5
24,-8.182380076234601,8.161183763233966,1.3130213133093305,9,5
25,-6.029676208383795,8.780134445876813,1.0831380815076832,9,5
26,-3.7953898193070508,8.959070526647656,0.6733541460362685,6,5
27,-1.763236206479682,8.745615132536757,0.18290703618739418,6,1
28,-0.1406974678123857,8.223823977321569,-0.2897271485290933,6,1
29,0.9831791046253638,7.495756365502365,-0.6725526627429782,2,1
30,1.6611328324026524,6.656522221513084,-0.9327379383083031,2,1
31,1.9974571453997207,5.7933542994149,-1.0607591764289404,2,6
32,2.096354018194301,4.982067355964403,-1.0580988388404533,2,6
33,2.0621959872844906,4.259036204533375,-0.9574043539792466,5,6
34,1.9665029809731682,3.630784698275419,-0.8027717494865829,5,6
35,1.8431936453266287,3.0854219153175797,-0.6285043713664739,5,6
36,1.5902209054517675,2.608133425626588,-0.453630384460156,5,6
37,1.2317156294200835,2.1832722453165654,-0.2596595168013041,5,6
38,1.139989689091507,1.833111453969816,-0.07247069395072121,5,4
39,1.1181748237719151,1.5447605690884592,0.056176728836564674,0,4
40,1.0887862679144324,1.2754135886910458,0.14262428860209117,0,4
41,1.0652329245964471,1.0117159701440068,0.19019019552220406,0,4
42,1.0473085419600598,0.7679849145917252,0.21492144644836797,0,4
43,1.0234903010324612,0.5695186759320109,0.2400052502683731,0,4
44,0.9985752972575904,0.4160662692391693,0.26734075211854136,0,4
45,0.9774360152689523,0.30119607290762745,0.2953259004833166,0,4
46,0.9634565982329776,0.22162745068132944,0.3169624518098536,0,4
47,0.9520679735014211,0.17945207488382328,0.315981476603854,0,4
48,0.94307463694017,0.156964305577485,0.30168506942292717,0,4
49,0.9409145578410397,0.13237670968703785,0.2926498266567002,0,4
50,0.943270031854209,0.10494225913422861,0.2863764205775879,0,4
51,0.947600854450934,0.07761801254885123,0.280050855138853,0,4
52,0.9524978007936052,0.05182029681449919,0.27402481627498715,0,4
53,0.9570333508553329,0.028244163385470273,0.26890133026479945,0,4
54,0.9605293711936217,0.0071361149452523216,0.26433290032224044,0,4
55,0.9627931558927592,-0.011969746070083692,0.25990843790951834,0,4
56,0.9638810194859634,-0.029917976715831535,0.2552554128184526,0,4
57,0.9638590161206005,-0.047497914399116936,0.25010660841767235,0,4
58,0.9627103366952552,-0.0652311628801318,0.24442279116668866,0,4
59,0.9603486726117688,-0.0833369539538857,0.23844303253193544,0,4
60,0.9566834396220205,-0.10176020938489407,0.23257198474228097,0,4
61,0.9516533848720161,-0.12039560294159557,0.22725531983929678,0,4
62,0.9452882483807502,-0.13915739107481173,0.22279901437222396,0,4
63,0.9376299741653122,-0.1580602293283446,0.21937305617940506,0,4
64,0.9287036753340928,-0.1773065086190166,0.2169266287976927,0,4
65,0.9184339920649989,-0.19727398771432786,0.21522229550787444,0,4
66,0.9066558139251787,-0.21856304396066265,0.2138087059678739,0,4
67,0.8930967122363842,-0.24193544543598122,0.2120931340416914,0,4
68,0.8774286444146316,-0.26822773924048676,0.20945397517306477,0,4
69,0.8592385522081532,-0.2982292767865627,0.20533908091431147,0,4
70,0.8380670393388688,-0.33252301481297963,0.19941232579355841,0,4
71,0.813451182360769,-0.3714909736379138,0.19152478213504973,0,4
72,0.7849830744248463,-0.41528454549204163,0.18170902835881464,0,4
73,0.7523939685679867,-0.46390615057162177,0.17008549540946916,0,4
74,0.7156241728619294,-0.5172231221381308,0.15682515777363956,0,4
75,0.6748189578766856,-0.574926982064581,0.14218256042866412,0,4
76,0.6303306812067481,-0.6364753536251833,0.12655318080777186,0,4
77,0.5826493002733404,-0.7011009276316006,0.11048101364175471,0,4
78,0.532356670965219,-0.767932538756313,0.09459238829707015,0,4
79,0.4800072841153128,-0.8361617135482886,0.07932926445576317,8,4
80,0.42611967903034087,-0.9052902784394583,0.06477778025276644,8,4
81,0.3711669897372089,-0.9750507631590515,0.05060358578722232,8,0
82,0.3156623888926712,-1.0452909016518368,0.03618612469826073,8,0
83,0.26023296209006885,-1.1157182895548459,0.020964838629929913,8,0
84,0.20569354358436862,-1.1857687943239923,0.0046213092380612995,8,0
85,0.15301952695393853,-1.2545674064484837,-0.0127311117689427,8,0
86,0.10323920783417707,-1.3211000071929218,-0.03061228780862938,8,0
87,0.057265696182404756,-1.384376333661215,-0.04842167295200231,8,0
88,0.01571116713869985,-1.4436686766965465,-0.06572182202192088,8,0
89,-0.021185757416119874,-1.498625913012296,-0.08240043675403784,8,0
90,-0.05350981854892371,-1.5492471017195828,-0.09879764364781625,8,0
91,-0.08154949266041447,-1.5956681620663795,-0.1154426328772562,8,0
92,-0.10561420554939716,-1.6378551006489097,-0.13275447727159095,8,0
93,-0.12594046580461293,-1.6754010877927725,-0.1507739759806339,8,0
94,-0.1427256969851979,-1.7075541323183643,-0.16912486390729353,8,0
95,-0.15623679905054114,-1.7334070608953434,-0.18709282822684858,8,0
96,-0.16690575755260711,-1.7522641169607864,-0.20372686548671756,8,0
97,-0.17520382433773818,-1.7641939122108659,-0.21739490313789966,8,0
98,-0.1808093589781268,-1.771200378572968,-0.22420577208492515,8,0
99,-0.18297204961433816,-1.7762138301423953,-0.21987879962553497,8,0
100,-0.18595986608201567,-1.7728707344086463,-0.2159226343890868,8,0
101,-0.19125494840414342,-1.7590962869086944,-0.21677014034769518,8,0
102,-0.19858286668470737,-1.7360662660560917,-0.22080658509790985,8,0
103,-0.20992682938046855,-1.7026671104454383,-0.22925259767263423,8,0
104,-0.22808293073540123,-1.6575492447342939,-0.24349551547906292,8,0
105,-0.25467396214346677,-1.5998737948534931,-0.2644758019413264,8,0
106,-0.29063442668656875,-1.5281460167277996,-0.2914507640043921,8,0
107,-0.33995103085145995,-1.4382950250007551,-0.32036059111837484,8,0
108,-0.4128948023427817,-1.325011663422715,-0.3454118422773177,8,0
109,-0.5075390724674574,-1.2023919729009511,-0.3762647535094556,8,0
110,-0.5978563605571319,-1.1064987533656916,-0.43874779872986674,8,0
111,-0.665176809525781,-1.0572163510183725,-0.5424323660938485,8,0
112,-0.7020520884431162,-1.0625909660491617,-0.6865058536165721,8,0
113,-0.7047049172727571,-1.128706483747091,-0.8698524774037794,8,0
114,-0.6698453210119277,-1.257514966146112,-1.0894892410544095,4,0
115,-0.598467329493025,-1.4389584589910718,-1.333709624414578,4,0
116,-0.4988871345291695,-1.6482308028474626,-1.579436546057658,4,0
117,-0.38462579897118154,-1.8527704213037635,-1.7980153097537177,4,0
118,-0.2719093783086368,-2.021403656777364,-1.9633486840888479,4,0
119,-0.1745389631986069,-2.1327312365705287,-2.05915982193523,4,0
120,-0.10111519138605747,-2.173979001071035,-2.0776637813184515,4,0
121,-0.05396502651421526,-2.138491468068416,-2.0175973156649065,4,0
122,-0.030750110382893058,-2.025333212511807,-1.8834690390505142,4,0
123,-0.025957524094746873,-1.8419818730726953,-1.6861478485519175,4,0
124,-0.028688345432545684,-1.6066923673614102,-1.443615979103303,4,0
125,-0.025882094090307887,-1.3451920103597852,-1.1788926512378308,4,0
126,-0.012558558303598663,-1.0816926617080993,-0.9136907468444729,8,0
127,0.010355695940646874,-0.8345123616188325,-0.6636644784289507,8,0
128,0.04375132993566234,-0.6151798453692102,-0.43807984483344553,8,0
129,0.08923328302720275,-0.42756607550627146,-0.24162822438644338,8,4
130,0.14659774192357566,-0.2712396073848269,-0.07605710890669469,0,4
131,0.21421405529540347,-0.14614574194334592,0.05749645461798101,0,4
132,0.2902890024528383,-0.05446148450795991,0.15644192972070922,0,4
133,0.376211978102304,-0.0012830662557296658,0.21608137971518576,0,4
134,0.4674829125165366,0.020971891190142186,0.2437849904717331,0,4
135,0.5450613738598816,0.046440125873853315,0.27107406476132845,0,4
136,0.6091940416652192,0.08217736098390024,0.30579626649613834,0,4
137,0.663049192955979,0.11487401006162964,0.33595614952257324,0,4
138,0.7056071126003591,0.13841618961821386,0.3558023412521299,0,4
139,0.7375850817699292,0.15416589824082663,0.3672004135257718,0,4
140,0.7614245624668201,0.16482264630800902,0.3734904447887371,0,4
141,0.779623534762317,0.172218136323483,0.37694570671675043,0,4
142,0.7940416190029252,0.17735732953148284,0.37878051679766367,0,4
143,0.8058350564635723,0.18077330322233942,0.3795850888672537,0,4
144,0.8156324261621039,0.1828333966310293,0.37969199769985357,0,4
145,0.8237439971534444,0.1838108524235541,0.37929491617737016,0,4
146,0.830359865009639,0.18394429014294592,0.3785789869224817,0,4
147,0.8356645294926079,0.18342588198628226,0.3776594985861681,0,4
148,0.8398909842770824,0.18239906144323118,0.3766390640327583,0,4
149,0.8433061470768906,0.1809458913748226,0.3755866667991118,0,4
150,0.8462069257553542,0.17915406114282031,0.37451098719686265,0,4
151,0.8488536477091455,0.17706219771837545,0.3734083961401539,0,4
152,0.8514668383557328,0.17467349375580718,0.3722212752713088,0,4
153,0.8542144523006158,0.1720149281182325,0.37087110895799147,0,4
154,0.8571272506712534,0.1691547664296438,0.3693315398086808,0,4
155,0.8601347908392779,0.16623568851485876,0.36767912944180653,0,4
156,0.863019778150102,0.16348565173271953,0.3661105042542771,0,4
157,0.8655016822162014,0.16120330505159297,0.3648684186632217,0,4
158,0.8673146829214359,0.1596062259545943,0.3641749900381263,0,4
159,0.8683229590788915,0.15876221910680216,0.3640965075469498,0,4
160,0.8686061132319111,0.15859583410537495,0.3645943343731935,0,4
161,0.8683351115130981,0.1589270419142297,0.36552336135605873,0,4
162,0.8677003855731219,0.15954790980370104,0.3667792510519166,0,4
163,0.8668842688030688,0.16032711257587037,0.36831933387584176,0,4
164,0.8659732837419297,0.16116852057806716,0.3701929379808815,0,4
165,0.8650218751015888,0.16206908786100338,0.3724875510121907,0,4
166,0.8640030477485722,0.16298995553183693,0.3752906034204398,0,4
167,0.862901067870621,0.1639391364087708,0.3786001389193822,0,4
168,0.8616821420355281,0.16487158889099798,0.3822995306447726,0,4
169,0.8603494643288484,0.16577476686630538,0.38617318999264083,0,4
170,0.8588849505284244,0.1666626688182114,0.3898994510976113,0,4
171,0.8572964368047128,0.16762662890687446,0.3931297559906633,0,4
172,0.8555879586174849,0.1686337305989916,0.39556550167197,0,4
173,0.8537791426172258,0.16950037525878345,0.39708581564921885,0,4
174,0.8518780446756002,0.16970315119660773,0.3978288437487821,0,4
175,0.8498372909808488,0.16835865622827748,0.3983771015832004,0,4
176,0.847503998529013,0.1641400869584338,0.39989806783899884,0,4
177,0.844438751893145,0.15504632359425047,0.40434001880030196,0,4
178,0.8396685702215788,0.1377881253191367,0.4149317412918832,0,4
179,0.8309268995817448,0.1077004355956235,0.4364121193991257,0,4
180,0.8092985981381491,0.075449238386061,0.4573811089320077,0,4
181,0.7728793227027357,0.0790406493443234,0.4457079226096784,0,4
182,0.7477006627592939,0.11557527781722304,0.40284430765143636,0,4
183,0.7331173967635319,0.1375716872956465,0.3562047710689148,0,4
184,0.7215564846300979,0.11466254811736759,0.31444792459700416,0,4
185,0.7276194199150309,0.04555549064553918,0.2993666067805971,0,4
186,0.7798116982629903,-0.06586635377067926,0.37174686933791323,0,4
187,0.7512274381289743,-0.2736558781632004,0.5049521690045301,0,4
188,0.6175624810091852,-0.5865379432407045,0.7174973140808992,0,4
189,0.3878192811340557,-0.9956811782617978,0.9882278363976887,8,4
190,0.03890086760795827,-1.4871655943643696,1.2873533499474117,8,0
191,-0.4650056256006028,-1.9977124450020873,1.6188207614648322,8,0
192,-1.1212316067913721,-2.5186113665629746,1.910324595964072,8,0
193,-1.944218171664372,-3.056923612513534,2.063859151067367,10,0
194,-2.922187602956658,-3.622455656341635,1.9851401409934808,10,0
195,-4.065698228025088,-4.1783991896784,1.637745252921236,10,2
196,-5.390657181462749,-4.663050016265939,1.0260663371849914,10,2
197,-6.868954703027331,-4.960606803460147,0.23189581194756928,3,2
198,-8.417916946712014,-4.935309703180048,-0.6141471266431395,3,2
199,-9.878590751314555,-4.459299424880904,-1.356718947697741,3,2
200,-11.022521799600941,-3.467695995379452,-1.8751804299458263,3,2
201,-11.617000008668255,-1.9531526527876513,-2.09032002343915,7,3
202,-11.4851385370081,0.015468745129868903,-1.9865070178959652,7,3
203,-10.55711678273045,2.270964886429528,-1.6293340476656333,7,3
204,-8.892343987057803,4.557649813509059,-1.1532376784158787,1,3
205,-6.670930124371762,6.591191175268571,-0.7157951219324926,9,5
206,-4.1698963428383715,8.126477638144491,-0.4524891171041783,6,5
207,-1.7266576929002313,9.016935054182524,-0.4261889204447377,6,1
208,0.3446980661909931,9.238590350578322,-0.6053263486717129,6,1
209,1.8593833411173666,8.887270013787118,-0.8952976651927863,2,1
210,2.784117410593905,8.135108563385657,-1.1915706749745005,2,1
211,3.1997817835133158,7.171729307389907,-1.4190563747746414,2,1
212,3.2489643140559172,6.17208012399049,-1.533529277213819,2,6
213,3.0889183792714703,5.251649745288848,-1.5334701072056924,2,6
214,2.8555806388230645,4.447486834006003,-1.4579865414750506,5,6
215,2.6232117136982076,3.7795913676313484,-1.3182546614080195,5,6
216,2.4061187563506197,3.2569792944392013,-1.10722643900447,5,6
217,2.17326396716536,2.8302210167682333,-0.8557930242367497,5,6
218,1.9768114269734502,2.4537556261278795,-0.6171600457101041,5,6
219,1.8190687613284586,2.1080625615428557,-0.4033201780853336,5,6
220,1.6579659781013154,1.7763120681940523,-0.2224417347457474,5,4
221,1.5382764834003984,1.425876173515118,-0.11206457076436792,0,4
222,1.4252363543648696,1.101580119285469,-0.03768106559022634,0,4
223,1.3172493719985294,0.8380795371326442,0.038880554056455074,0,4
224,1.2265037840254784,0.6326055516682184,0.11268173507427673,0,4
225,1.1580974706502487,0.47554212951126856,0.1757635044015333,0,4
226,1.1071413571061093,0.35667165142136753,0.22731319617985685,0,4
227,1.0652248979136598,0.2658095000760452,0.2689037228610878,0,4
228,1.024199219445397,0.20100964344168065,0.29452083513081934,0,4
229,0.9800022969246656,0.16987342549124257,0.28918690499361865,0,4
230,0.9463777980599656,0.1465918263375926,0.2835156608914124,0,4
231,0.9255471426112121,0.11963455810931584,0.28416453173269574,0,4
232,0.9137124248088395,0.0914666267489702,0.28526977088384126,0,4
233,0.9081998428325989,0.06433511277262223,0.2849560215490402,0,4
234,0.9071650298523396,0.039306959024534384,0.28324874097574093,0,4
235,0.9091881417318601,0.01651093436603688,0.28020877447809356,0,4
236,0.9132355694457907,-0.0048180563651888325,0.2758182706403876,0,4
237,0.9184400842524106,-0.025728379823882208,0.2699742502942925,0,4
238,0.9239848951807995,-0.04706053559829029,0.262665569958581,0,4
239,0.9291495788509685,-0.06910128789932099,0.2542431126813477,0,4
240,0.933341030049556,-0.09164467067345675,0.24540787483875195,0,4
241,0.9361227923256938,-0.11419641592768127,0.23698242706059852,0,4
242,0.9372182760368416,-0.13625929552518962,0.22966740047175047,0,4
243,0.9364549769192133,-0.15761611542019777,0.22382037446016112,0,4
244,0.9337896012687531,-0.17850639737674653,0.21936129869643647,0,4
245,0.9293470080734616,-0.19967037644251537,0.2157971284417146,0,4
246,0.9233941554860795,-0.22217761239451236,0.2124342655053095,0,4
247,0.9161594229754223,-0.247109198880268,0.20864872908084897,0,4
248,0.9076067324773865,-0.27511756997953946,0.20423025159180533,0,4
249,0.8972831749710922,-0.3061986577735581,0.19951337283116646,0,4
250,0.8843735464655652,-0.3398310705778133,0.1952273699014802,0,4
251,0.8678878323731096,-0.375459756883402,0.19207048595936296,0,4
252,0.8467837872215213,-0.4129015156859588,0.19040010971950597,0,4
253,0.8201254964720417,-0.45255494044253547,0.19011522281017085,0,4
254,0.7871231771081828,-0.4952748691119731,0.19077163877488176,0,4
255,0.7472168645930961,-0.5420774896009799,0.19176623056030764,0,4
256,0.7000883544819744,-0.59374708089847,0.19255229743634222,0,4
257,0.645704938295209,-0.6505672882952741,0.1927099918924166,0,4
258,0.5843609060727802,-0.7122088696669936,0.19197725444174837,0,4
259,0.5168116382056128,-0.7778350624770639,0.19012766433680572,0,4
260,0.44431076832593724,-0.8463145375433935,0.1869598326769768,8,4
261,0.3685046181651407,-0.9163972105143706,0.1822875291068859,8,4
262,0.29122620667372184,-0.9868593254100364,0.17594686193184075,8,0
263,0.21426045851849115,-1.0566745673437579,0.16789691440592233,8,0
264,0.13924681156835048,-1.1249478965125261,0.15821964156635807,8,0
265,0.06761962894757305,-1.1909668539369498,0.14714661149045768,8,0
266,0.0005560430590118233,-1.2541094205337266,0.1350335365534984,8,0
267,-0.061111442278867924,-1.3138357258700635,0.12228394123787992,8,0
268,-0.11700453181698266,-1.3697865725097162,0.10922437150433861,8,0
269,-0.1670448540337318,-1.4218220870085503,0.09599756066175182,8,0
270,-0.2113949042625456,-1.470031595123603,0.08254479061130546,8,0
271,-0.2502300529475239,-1.5145864444175299,0.06870449139627956,8,0
272,-0.28364195395994474,-1.5555827814967915,0.054234024895036266,8,0
273,-0.31163354863510445,-1.5929085482294707,0.038992699505316204,8,0
274,-0.3342529272348525,-1.6261943939998318,0.022967496966619705,8,0
275,-0.3516941751976566,-1.6549427982661127,0.006482719744076188,8,0
276,-0.3643155766427699,-1.678746668709888,-0.009565809242847783,8,0
277,-0.37244316259161836,-1.6978765232830224,-0.02301531877541297,8,0
278,-0.37589692981386186,-1.7140428782163493,-0.029361142491256417,8,0
279,-0.3764699717440609,-1.725699400161758,-0.029761860530894094,8,0
280,-0.37835468951704837,-1.7267968416145616,-0.03335642762434539,8,0
281,-0.38119535639606705,-1.718473337728659,-0.03875008342716129,8,0
282,-0.384563909356417,-1.701513829028521,-0.046264156572669024,8,0
283,-0.3897691698982618,-1.6753985033543923,-0.05824046551985909,8,0
284,-0.39974811253841636,-1.6394302725534597,-0.0768778249632044,8,0
285,-0.4165785438913007,-1.5941188813994887,-0.10398550786760448,8,0
286,-0.44027078638008177,-1.5411235303345152,-0.14055373069779603,8,0
287,-0.47225841036179816,-1.4808183238483636,-0.1847651189449493,8,0
288,-0.5200740186351182,-1.4087708821122555,-0.22957923622650553,8,0
289,-0.5982536448051988,-1.3155408754108757,-0.26355055109499037,8,0
290,-0.7015124041273527,-1.2164901447310967,-0.2975910522459435,8,0
291,-0.7923240473663491,-1.156778935346143,-0.3674263795231006,8,0
292,-0.857876151429094,-1.1451088673504572,-0.47556352247394584,8,0
293,-0.8953604309537869,-1.1799098434055917,-0.6154981283725962,8,0
294,-0.9009117398134051,-1.2649046590640283,-0.7864918611829151,8,0
295,-0.8704057338489867,-1.4050896422125039,-0.9898612047855218,4,0
296,-0.8020575272348865,-1.5984867632342068,-1.222139768011432,4,0
297,-0.700671592254166,-1.8286428903593999,-1.4681465076075253,4,0
298,-0.5788653497383452,-2.0643416845011746,-1.7007152702146568,4,0
299,-0.4552863596336444,-2.268492843992389,-1.888706654020383,4,0
300,-0.345453408952012,-2.4143240090011497,-2.0110336161541755,4,0
301,-0.2586381172743364,-2.486741357415297,-2.0573931383543473,4,0
302,-0.1994497054923695,-2.4778761942691037,-2.02408039394872,4,0
303,-0.16929496113982875,-2.386573839784924,-1.9137320851583008,4,0
304,-0.16697494947019784,-2.2192207900982424,-1.7352789290025727,4,0
305,-0.18595366560837673,-1.9913200579595087,-1.5051087768167184,4,0
306,-0.21186724043058472,-1.7272427291922594,-1.2465952511489256,4,0
307,-0.22878391020337188,-1.453690623264497,-0.9846692041251658,4,0
308,-0.22886577358049823,-1.1905553598037193,-0.7376921015616738,8,0
309,-0.2089029207549622,-0.9501340793748833,-0.5160335398123996,8,0
310,-0.1668361537443331,-0.7376829474423812,-0.32360803258653364,8,0
311,-0.10387795015043155,-0.5535139390907995,-0.1599039961360409,8,0
312,-0.023056652333939984,-0.3968275499428036,-0.02328364022913798,8,4
313,0.07281633670769226,-0.26933137933813817,0.08520002361275039,0,4
314,0.18506640889802878,-0.18054223024977373,0.1566676331905962,0,4
315,0.3144744756761584,-0.1401468921330591,0.18197271879232577,0,4
316,0.43033975619805426,-0.11091430191574277,0.19391305003121198,0,4
317,0.5245004093064085,-0.06688180884482063,0.2181151155591027,0,4
318,0.6060244772147684,-0.01855901703716984,0.24710912252241302,0,4
319,0.6768887350262245,0.024287120590290888,0.2727078533202192,0,4
320,0.7353423770787261,0.05847138219322451,0.2919833599507659,0,4
321,0.7807532830865753,0.08408882844902801,0.3048972133961671,0,4
322,0.8149442831124399,0.10256462740030695,0.31281024504466937,0,4
323,0.8409152599711507,0.11564546681108925,0.317353656691312,0,4
324,0.8611644432731563,0.12498465780761807,0.31991362019831365,0,4
325,0.8771565810363808,0.13204446583961266,0.3216094683053904,0,4
326,0.8896162492162923,0.13799164023974533,0.32325617996098455,0,4
327,0.8989677762822881,0.1435041316987008,0.3253205252834079,0,4
328,0.9056099278743636,0.14881607097330057,0.3278966109542015,0,4
329,0.9100418509329897,0.15379973614439388,0.33081370442635216,0,4
330,0.9127843232195962,0.15821738278128447,0.33380280828347175,0,4
331,0.9143484497155546,0.16188520969262532,0.33659228544574,0,4
332,0.9151732251432596,0.1647761750114689,0.33902038784758415,0,4
333,0.9155814391566999,0.16698242194595023,0.3410415163098935,0,4
334,0.9157642464582212,0.1687183829157591,0.3427056275834728,0,4
335,0.9157609223572577,0.17027395555941388,0.34419559903947045,0,4
336,0.9155093422343838,0.1718745425728977,0.3457453206672219,0,4
337,0.9148859682672714,0.1736637130449175,0.3475756892966351,0,4
338,0.9137828217484304,0.17566316454566658,0.3498090649814736,0,4
339,0.9121665412621691,0.17772623876171123,0.3524417938131558,0,4
340,0.9100721225401349,0.1796326498785712,0.35537350578607746,0,4
341,0.9076015714199055,0.18120378722837774,0.35844775842902254,0,4
342,0.9048688442932658,0.18232242714929184,0.36152505585926964,0,4
343,0.9020113649951665,0.18300334078007488,0.3644798738190915,0,4
344,0.8990955092080761,0.18324227283158565,0.3672989145185108,0,4
345,0.8962191634599306,0.18309270904236724,0.3699648450072892,0,4
346,0.8933935204812586,0.18251742331987847,0.3725317630376267,0,4
347,0.8906428468432399,0.1814885796913187,0.37505159443527936,0,4
348,0.8880024353391555,0.17997230123604507,0.37757241369401084,0,4
349,0.8855059703603414,0.17797717079280057,0.38009000438854146,0,4
350,0.8831937949690284,0.1756249198741252,0.3825332109130731,0,4
351,0.8810539976283677,0.1730645287895844,0.38477174663736724,0,4
352,0.8790400963885059,0.17047288493259655,0.3865930556716979,0,4
353,0.87705576722582,0.1679183050645852,0.3877890260578777,0,4
354,0.8750683174816959,0.16527717539786793,0.3882020686029335,0,4
355,0.873228144242371,0.16224126751258933,0.38778195640235485,0,4
356,0.8719866965896667,0.1582779341972541,0.3865914104341816,0,4
357,0.8722048055498167,0.15272181083350264,0.38493988714304767,0,4
358,0.8750567784822956,0.1447025383152457,0.38336163843814924,0,4
359,0.8817220447382953,0.13312105797222717,0.38266647166575873,0,4
360,0.8929534892370908,0.1161897605188812,0.38419852460952003,0,4
361,0.9079536510478748,0.09251165851807051,0.38858855167938366,0,4
362,0.9194254772040179,0.06866620243602718,0.38697909397852587,0,4
363,0.9191683121703533,0.04990892924376437,0.3807468418717812,0,4
364,0.9074271041477908,0.03359269661919776,0.37469483105703555,0,4
365,0.8979094958152606,0.00042701731795598806,0.36470628940087607,0,4
366,0.8989263826459859,-0.07336027679606265,0.34399474435356064,0,4
367,0.9111548605517533,-0.18851974271761346,0.3165821484040247,0,4
368,1.018490428829234,-0.28450139929926593,0.2883850168821105,0,4
369,1.2757614841124862,-0.4141614355589268,0.30023577818933145,0,4
370,1.5525825573961816,-0.5983918955742011,0.36852712066399856,0,4
371,1.8090201405922541,-0.7920709441956122,0.4564908138862092,0,4
372,1.980546863561164,-1.0011723902267138,0.5376789823176022,0,4
373,2.023776041409964,-1.2626563985444994,0.535850473166466,0,4
374,1.8745454921771099,-1.5581239647672511,0.4295557559626604,0,4
375,1.3696084112383382,-1.927354002521172,0.19856196254861078,8,0
376,0.4227651438871002,-2.338618279707521,-0.14817869694849017,8,0
377,-0.9842234326679754,-2.656635410176129,-0.5966182482842627,4,0
378,-2.8503238204346593,-2.755368123339511,-1.045617599559743,4,0
379,-5.074154609961388,-2.507276123682943,-1.3604386551768552,10,2
380,-7.446995812584675,-1.831673770628203,-1.4310236441344069,3,2
381,-9.673934442404224,-0.7083595634139686,-1.2072410099750948,7,3
382,-11.420672244265742,0.8112115277993263,-0.709394159337577,7,3
383,-12.384109456949988,2.6095428296374363,-0.03838179209675357,1,3
384,-12.359761964322818,4.523724126973042,0.643396882496323,1,3
385,-11.302846803647943,6.340869326252707,1.1670523305380371,1,3
386,-9.357141641959291,7.818683168685823,1.4247342384671797,9,5
387,-6.816504920485099,8.800626888029562,1.3639704834798554,9,5
388,-4.072574914220031,9.226114946750355,1.018744501677341,6,5
389,-1.520951142773446,9.132676889106977,0.492045150763501,6,1
390,0.5345216855030768,8.63070323184423,-0.08526696622836197,6,1
391,1.9357424946317785,7.861583981042429,-0.5941144593201444,2,1
392,2.6919717618735275,6.96224159077832,-0.9604304088729947,2,1
393,2.9494568674594657,6.0418319845754915,-1.1638974678572733,2,6
394,2.895462519020951,5.168964761724868,-1.2138749468528642,2,6
395,2.6925800990209585,4.392721747772344,-1.1411824588641633,5,6
396,2.4553043060693582,3.7440933323863854,-0.9864278125739065,5,6
397,2.2440580679601285,3.215619656623766,-0.7872736623886166,5,6
398,2.0657545729142006,2.7727344367572435,-0.5796632764760881,5,6
399,1.8492787753762971,2.3900782772927305,-0.38585453761439586,5,6
400,1.6447591863106423,2.058113979904878,-0.2039347697277727,5,6
401,1.5181603034942412,1.7530057871583853,-0.05010233831987309,5,4
402,1.4453040253520708,1.4189378758198068,0.03716078156892275,0,4
403,1.3624892134108217,1.0948664143502662,0.08632472582759855,0,4
404,1.2733400508464328,0.8196922046909321,0.12975161921304434,0,4
405,1.1998776857073987,0.6028155608998099,0.17385329015021836,0,4
406,1.1450996907400044,0.43804022500220474,0.21542361124553133,0,4
407,1.108144335905524,0.314509083349863,0.250715935922142,0,4
408,1.0842381075938379,0.2220941562840558,0.27902212470681154,0,4
409,1.067042225940089,0.15684211913843568,0.295940583385553,0,4
410,1.0531201952587654,0.11916020856486907,0.2937928168985224,0,4
411,1.0442464486877432,0.09418337221550023,0.28221995660412186,0,4
412,1.0411762859897387,0.06980204765366503,0.27115616446516105,0,4
413,1.0415934759394856,0.04521924888484908,0.26123462356015514,0,4
414,1.0441250359464145,0.020502514952565,0.25414707050375535,0,4
415,1.0472373177297905,-0.0031287112416948514,0.24943985611568192,0,4
416,1.04954825073714,-0.024295957482185458,0.24541474525680387,0,4
417,1.0506158617450425,-0.042975902088701924,0.2415074854851361,0,4
418,1.0504856915967786,-0.059757223925434706,0.23753656594249253,0,4
419,1.0494183514708617,-0.07539654199347204,0.23346885699375866,0,4
420,1.04767597898821,-0.09059525950985053,0.22938254981643316,0,4
421,1.0453911591704883,-0.10580054108942516,0.22547124317954534,0,4
422,1.042460473216358,-0.12129116113101995,0.22195924906370054,0,4
423,1.0386221102372828,-0.1371474094672742,0.21903516502794207,0,4
424,1.0335606961319328,-0.15340179398003123,0.21683789324354402,0,4
425,1.0269852004989508,-0.17014880931816107,0.21536996573305672,0,4
426,1.018760692328818,-0.18768517033897397,0.2144860024081815,0,4
427,1.0089060807223091,-0.2066121582459471,0.21383315092408958,0,4
428,0.9975648150259264,-0.2278286049110736,0.21285127520362582,0,4
429,0.9848316646990238,-0.2523589808185579,0.2108778438748001,0,4
430,0.9705982332286451,-0.28109473993915834,0.20731482962708295,0,4
431,0.9544323604731924,-0.31452577935152204,0.20183474055711723,0,4
432,0.9356382999059613,-0.35263376186503664,0.19450377446150036,0,4
433,0.9133905939651847,-0.395028941698923,0.18572750120854095,0,4
434,0.8868849866143476,-0.44122934299350103,0.1760606734468925,0,4
435,0.855460704354883,-0.490916142088357,0.16597696955685556,0,4
436,0.8187113895974482,-0.5440778566759973,0.15566758438489653,0,4
437,0.7765337579976868,-0.6009592508648398,0.1449715361775031,0,4
438,0.7291490850488478,-0.6618933016856552,0.13344570152009272,0,4
439,0.6770755691198779,-0.7270740546738873,0.12055974542585994,0,4
440,0.6210158433444738,-0.7963671390369217,0.1059478945461802,0,4
441,0.5617370144593756,-0.8692079553471241,0.08960563440386533,8,4
442,0.4999345946411494,-0.9446306444864875,0.07190899332369938,8,4
443,0.43622560124071463,-1.021426033564953,0.05343373496408126,8,0
444,0.37115580813645477,-1.098379232004823,0.03471456173171327,8,0
445,0.3053592459175398,-1.174359301358715,0.016037194433182734,8,0
446,0.23974130200958516,-1.2484873104085465,-0.0025347749527566917,8,0
447,0.17561781025568962,-1.3199883129790795,-0.021049645396081087,8,0
448,0.11455203681236531,-1.3882024121305738,-0.039460231553738324,8,0
449,0.05799919118896362,-1.4524789568265994,-0.05756227215596527,8,0
450,0.00699315646129246,-1.5122622352577846,-0.07509883107145648,8,0
451,-0.03804170889285752,-1.5671584156422562,-0.09185704524867386,8,0
452,-0.07718755403850504,-1.6169065448860622,-0.10783578257714269,8,0
453,-0.11084316864969003,-1.6614033550066523,-0.12322676894890179,8,0
454,-0.13949024685074635,-1.7005095800314833,-0.1383462784446142,8,0
455,-0.16354285186165962,-1.7340779797478965,-0.1534548026053166,8,0
456,-0.18337476577298437,-1.7618942007243086,-0.16854192133810592,8,0
457,-0.19934496364381266,-1.7838306372295887,-0.1831712528922064,8,0
458,-0.21181727158680302,-1.8000101651046234,-0.1961544143839393,8,0
459,-0.22087716587182923,-1.8114713792059065,-0.20477691601036743,8,0
460,-0.225853098645686,-1.8207603405986452,-0.20394713363575634,8,0
461,-0.22918481135131677,-1.8250206914088756,-0.1978183309850092,8,0
462,-0.23477102729965038,-1.8186329299547306,-0.19549334344102937,8,0
463,-0.24236459095859228,-1.803133527300368,-0.19497632200660298,8,0
464,-0.25291450822651496,-1.7785007629638778,-0.19698928805452018,8,0
465,-0.26886182129726816,-1.7436290456413663,-0.20339899449511256,8,0
466,-0.2926025990289339,-1.697442783562185,-0.21574474884372832,8,0
467,-0.3256066353859309,-1.6391795951223143,-0.23490674482933374,8,0
468,-0.37101746638491445,-1.5672634594900727,-0.26008315868543236,8,0
469,-0.4374050453844064,-1.47813833180574,-0.2876660038329665,8,0
470,-0.5341431064877349,-1.3732613208244093,-0.3167028192069042,8,0
471,-0.6423556291698141,-1.2830582743697074,-0.3683978828501343,8,0
472,-0.7343466995531159,-1.2356862648104612,-0.4597724517327594,8,0
473,-0.799145180113787,-1.2370779497353768,-0.589074808056338,8,0
474,-0.8315035167053173,-1.2913450957942232,-0.7545128994411068,8,0
475,-0.8260314929335588,-1.4040252774511504,-0.9569405912963521,4,0
476,-0.7798811676972485,-1.574444646335678,-1.1926400086472313,4,0
477,-0.6986978325916154,-1.7867385479613733,-1.445337030174727,4,0
478,-0.594007913238261,-2.0112811832566893,-1.687670666324889,4,0
479,-0.4815730984176975,-2.2125681281606813,-1.8885157410970295,4,0
480,-0.37930184047710935,-2.3597783208042853,-2.022648487893767,4,0
481,-0.3011649826047994,-2.433178811863487,-2.075611903584819,4,0
482,-0.2518961813824358,-2.425045826034356,-2.0437246812611827,4,0
483,-0.22952843012405852,-2.336782931177218,-1.9322128156864833,4,0
484,-0.22969872720273007,-2.176535479194553,-1.7535708653779394,4,0
485,-0.2453444316053631,-1.9590135567751361,-1.525458531756078,4,0
486,-0.2646045817245021,-1.70494406564515,-1.269365082616837,4,0
487,-0.27544739845365135,-1.4368007502667124,-1.0071804726306148,4,0
488,-0.27175409165823683,-1.1731797114038094,-0.7564695926959053,8,0
489,-0.2501653323873756,-0.927959261605068,-0.5284491684931324,8,0
490,-0.20794168139654345,-0.7096745611769513,-0.3273841340580403,8,0
491,-0.14553799516625934,-0.5210527164596358,-0.1533763074121932,8,0
492,-0.06598296906714302,-0.3618203372738083,-0.0068723558372675115,8,4
493,0.027296869678783156,-0.2326604545766742,0.10979908073948746,0,4
494,0.13260279572254818,-0.1379934527047124,0.1917478518900967,0,4
495,0.2511973817948171,-0.08473502955841564,0.23286129301129888,0,4
496,0.36601687217325785,-0.05210109649512873,0.2522477520118743,0,4
497,0.463671484731903,-0.010867834998666658,0.2775864315477064,0,4
498,0.5498750598764977,0.03556823283863515,0.3072917460903128,0,4
499,0.6248463010963801,0.07601873355700847,0.33150859468461447,0,4
500,0.6850600082622639,0.10609702607034893,0.34624615429034594,0,4
501,0.7300012606344,0.12700877539295877,0.353075704898873,0,4
502,0.7626184295417188,0.14134056587903737,0.35511714393844884,0,4
503,0.7867008812539551,0.15108114071487735,0.35472846845745065,0,4
504,0.8052286536278228,0.15754182124704935,0.3531933922818546,0,4
505,0.8200277736909067,0.16162784052263662,0.35122611016343264,0,4
506,0.8320990850453238,0.16410565248253994,0.3492393148066404,0,4
507,0.8420023921613373,0.16555778544225438,0.3474471104059435,0,4
508,0.8501149236223902,0.16636396468422326,0.34596833202100724,0,4
509,0.8567456892916797,0.16678166653977186,0.3448293364580966,0,4
510,0.862146202693947,0.16694165257909904,0.3440294219336658,0,4
511,0.8664979367020365,0.1669755571136378,0.34360557551375287,0,4
512,0.8699362710090016,0.16697940888689008,0.34359550875642547,0,4
513,0.8725866102701973,0.16700681329884345,0.3439911838562867,0,4
514,0.874599555055659,0.167036566131558,0.34471650491511896,0,4
515,0.8761315462840255,0.16706137671454277,0.34569983845816804,0,4
516,0.8773129148304659,0.1670442280065203,0.34687768799647517,0,4
517,0.8782388013640211,0.16705403601629798,0.3482588164618171,0,4
518,0.8789574649673825,0.16717947440009323,0.3499243916017089,0,4
519,0.8794867532473538,0.1675647553585445,0.351952742331326,0,4
520,0.8798587808396646,0.1682971511432967,0.35445886450725467,0,4
521,0.8801318486409775,0.16942787997195574,0.3574758710389883,0,4
522,0.8804221324877616,0.17083009346459718,0.3609317932875628,0,4
523,0.8808622075518715,0.17234090314483225,0.36464682654397507,0,4
524,0.881579544525075,0.173730326673391,0.3683446724631495,0,4
525,0.8826403466714233,0.174791806706107,0.371745189994957,0,4
526,0.8840403265395852,0.17539009764085042,0.3746135891573704,0,4
527,0.8856906674563808,0.17549323626333713,0.376891949584202,0,4
528,0.8874636028181965,0.1751584491987804,0.37868245178871407,0,4
529,0.8891874259106738,0.17456237802743835,0.3802398538214158,0,4
530,0.8906904223757397,0.1738839934538908,0.38185474058961444,0,4
531,0.8918661876033172,0.17327132402758083,0.3837041232812587,0,4
532,0.8927422148613163,0.1728158572641297,0.3857020931848507,0,4
533,0.8934440828892707,0.17246168361680436,0.3875566793699585,0,4
534,0.8941666858327912,0.17207630084824094,0.3888527300173864,0,4
535,0.8951104136708754,0.17130642023941847,0.3892669740902619,0,4
536,0.8964220975096451,0.16954847052278874,0.38879025187147476,0,4
537,0.8981357467661357,0.16583074885989246,0.3877688150591782,0,4
538,0.8999924761995959,0.15873488999841073,0.3872220776388401,0,4
539,0.9012593229529227,0.14624353764917042,0.3889984414002513,0,4
540,0.9002212320784461,0.12498776561165353,0.3964977634644524,0,4
541,0.8932697937297251,0.09079074658359144,0.4144559688646145,0,4
542,0.8728789756010268,0.05971381280376423,0.42971824644830325,0,4
543,0.8498472869492874,0.08031109734585365,0.40148210344181895,0,4
544,0.841963272388204,0.11845774758714349,0.35261046320732314,0,4
545,0.8180140674453789,0.12159809881461461,0.30923637596298487,0,4
546,0.8123769309632131,0.07901414175789588,0.2732946633047793,0,4
547,0.8426805184870079,-0.0019184425874149355,0.2896971633080323,0,4
548,0.8180209871745397,-0.14681191302642518,0.3772395340344777,0,4
549,0.6944074503409369,-0.4013022736984369,0.5386639458482936,0,4
550,0.4932680121085756,-0.7585699442121284,0.7713215688576928,0,4
551,0.16411508228821486,-1.2078958147837389,1.0709131277731403,8,0
552,-0.3254312582921303,-1.7126889051754361,1.4283419464624216,8,0
553,-0.9579789597870081,-2.248981275576993,1.803403724467096,8,0
554,-1.74044220864088,-2.8152030964648627,2.1066672319200626,10,0
555,-2.669098039250623,-3.4381002190063312,2.2068668852696316,10,0
556,-3.75567562398637,-4.046487593638739,2.083323222588981,10,2
557,-5.003038671031214,-4.590001658456701,1.7139412495253863,10,2
558,-6.396060136031652,-4.980756508922285,1.1299530785363154,3,2
559,-7.888201782096825,-5.090809493089077,0.4281248703889849,3,2
560,-9.382975876490809,-4.801968459913409,-0.27249204646282466,3,2
561,-10.709597684936611,-4.024887831480439,-0.8453547782347153,3,2
562,-11.649089556441263,-2.7111954507861387,-1.1763050063357994,7,2
563,-11.9892461998808,-0.876682853381774,-1.1985264446689463,7,3
564,-11.582770559450726,1.3533029544423125,-0.9392958804484848,7,3
565,-10.395969556472359,3.7455379701864318,-0.5162055092810103,1,3
566,-8.53566410545258,6.029127399929628,-0.0674337830419957,9,5
567,-6.219876664543189,7.919939744163493,0.26024659014894036,9,5
568,-3.735962951856602,9.20217076720911,0.36476584044056987,6,5
569,-1.390067798451757,9.780841524154903,0.2205853906625579,6,1
570,0.5616466064690683,9.689292952771007,-0.11930212072818044,6,1
571,1.9839134288856037,9.066515813603196,-0.5499876037482887,2,1
572,2.8624482314505566,8.111993370666015,-0.9550166292871648,2,1
573,3.270928133841866,7.02648593194096,-1.2506031132630313,2,1
574,3.3381647858444388,5.967097262499244,-1.4100000226603648,2,6
575,3.203575814746162,5.030309877397269,-1.4485299159867497,2,6
576,2.9865580732159143,4.256885051560245,-1.3905584376348925,5,6
577,2.7598370931514213,3.6516101423839658,-1.2509097228057433,5,6
578,2.551135034793935,3.182283995166992,-1.0503762740813545,5,6
579,2.3581759932863897,2.790829048311834,-0.8229442065486259,5,6
580,2.1646726978696362,2.4354325241375476,-0.5953492822581962,5,6
581,1.9854251778530951,2.1020730582968783,-0.38244781169385744,5,6
582,1.8120460511174539,1.777043703545876,-0.2010706200987309,5,4
583,1.6789326141790997,1.4267796088345555,-0.09338759033232254,5,4
584,1.5648813791194298,1.0870665749524584,-0.03459042753166943,0,4
585,1.4555117739056456,0.8143158717494186,0.0280285258647281,0,4
586,1.364392627750231,0.6070116097894613,0.0915832160538178,0,4
587,1.2975849578818093,0.45100754747589994,0.14835146275917635,0,4
588,1.2494376918598389,0.333605329131622,0.19716224784166203,0,4
589,1.2120341689555152,0.24387072449017613,0.23766529502622877,0,4
590,1.1794467189053344,0.17817979517441945,0.2648115478034794,0,4
591,1.1483611308245627,0.14195990009747614,0.2666153927589179,0,4
592,1.1251471939992044,0.11946388616386804,0.2587792414920364,0,4
593,1.1122061881823324,0.09579958646019708,0.2543891481489469,0,4
594,1.1059023726716917,0.07099399141982514,0.25135538533974056,0,4
595,1.1033677231958092,0.04673515145688974,0.24823778865906204,0,4
596,1.1026627563932792,0.02409844634931804,0.24488091266849485,0,4
597,1.1024401202956229,0.003669651724900439,0.24132685577587398,0,4
598,1.1019222281127907,-0.014782536014761772,0.2378626506189837,0,4
599,1.1007411394272746,-0.03189285100615373,0.23453766221746336,0,4
600,1.0986880095518465,-0.04845929514178193,0.23121610336622014,0,4
601,1.0955337553964324,-0.06512763871325476,0.2277787451686389,0,4
602,1.0910275382075696,-0.08225965420350685,0.22420939599807904,0,4
603,1.0849076704018326,-0.09995210844724513,0.22067972712409328,0,4
604,1.0770333392562572,-0.11809245933318228,0.21745373780568872,0,4
605,1.0673648536478322,-0.1365897112727923,0.21486709069200366,0,4
606,1.0559941832255368,-0.155473027349903,0.21320704045664382,0,4
607,1.0430573094337559,-0.1750782201100449,0.21260503185619142,0,4
608,1.0287135212626723,-0.19607985640911443,0.21297629096258258,0,4
609,1.0130308277816455,-0.2193886203187549,0.21405756365321377,0,4
610,0.9958722339168242,-0.24593440995441598,0.21553489968372927,0,4
611,0.976821378534022,-0.27636281207276164,0.21724993294734352,0,4
612,0.9552301795969301,-0.31091520510051507,0.21926097387692073,0,4
613,0.930351664865405,-0.34948839589780417,0.22176919074947898,0,4
614,0.9015705463709893,-0.3918037449487999,0.22498348255766584,0,4
615,0.8685287282897818,-0.43765100844980026,0.22893374024886043,0,4
616,0.8312184637143997,-0.4869665557495948,0.23343306614005382,0,4
617,0.7898636868549062,-0.5397981322449916,0.23810765970802555,0,4
618,0.7447292580123454,-0.5961581812993401,0.24249276710532072,0,4
619,0.6960004100522095,-0.6558338958325453,0.24614894767967602,0,4
620,0.6437164710711812,-0.7182757259142073,0.24875785782684018,0,4
621,0.5878860453289763,-0.7825899715654906,0.2501916316294231,0,4
622,0.5286334973282473,-0.8476731664947926,0.2504508432881878,0,4
623,0.46624812663987847,-0.912543385952241,0.24956070253206938,8,4
624,0.40123983417982856,-0.976465047982828,0.2473634995496905,8,4
625,0.33421368042517446,-1.0391660497158468,0.24344123472537116,8,0
626,0.26588440869726243,-1.1006877967796493,0.23722540175305973,8,0
627,0.19701956189659137,-1.1611175182620412,0.22827356699809404,8,0
628,0.1283858241898421,-1.2202831716209324,0.21653524841385882,8,0
629,0.06067592545575611,-1.2774881006443404,0.20258486993091815,8,0
630,-0.0055364449920084465,-1.3317529474981022,0.18743645431122385,8,0
631,-0.06966220222173082,-1.3820519435559937,0.1721806894353371,8,0
632,-0.13099700140887355,-1.4277795506256497,0.15768580434009222,8,0
633,-0.18873847395805327,-1.4688138250519598,0.14437481205506011,8,0
634,-0.2420847745609688,-1.5054279945184696,0.13228154943072667,8,0
635,-0.2903683885479192,-1.5381128467811205,0.12122851259128631,8,0
636,-0.33318927000357346,-1.5673262387498745,0.11098575466218429,8,0
637,-0.37031754542351086,-1.5933436328896946,0.10134779282741604,8,0
638,-0.4017641190228268,-1.6162199165768745,0.09225392739735776,8,0
639,-0.42765558179787394,-1.635669007425475,0.08377437351574113,8,0
640,-0.4483852362531368,-1.6511572220726254,0.07613447634048878,8,0
641,-0.46456149832224747,-1.6620282146140635,0.06970282907963059,8,0
642,-0.4770425253422386,-1.667646117818167,0.06492860478608037,8,0
643,-0.4867035108700078,-1.667724728049915,0.06252961885643447,8,0
644,-0.4939443563563956,-1.662943062361705,0.06430298373065256,8,0
645,-0.498060431213528,-1.6556500291042704,0.07400068038877475,8,0
646,-0.5012131452855767,-1.6427055647319508,0.08579238390533059,8,0
647,-0.5061146036882238,-1.619966153991761,0.09173438113929389,8,0
648,-0.5122114844516296,-1.589491577993622,0.0936734945582774,8,0
649,-0.5202862083221672,-1.551670016766828,0.08975172799322291,8,0
650,-0.5311969847928706,-1.5069483857921184,0.0764341832014016,8,0
651,-0.5454166953768952,-1.4563582060034967,0.0501312878652232,8,0
652,-0.5633724738052056,-1.4011791521072203,0.00853842464959947,8,0
653,-0.5860041354245863,-1.3424103096466828,-0.048152311347298464,8,0
654,-0.6154275890697034,-1.2795644959333432,-0.11605009388060204,8,0
655,-0.6557416914657727,-1.2085830722426751,-0.1860007352176329,8,0
656,-0.7097629350551372,-1.1241283539869524,-0.24739950471018451,8,0
657,-0.7650250418052722,-1.037271957202119,-0.30521252909420793,8,0
658,-0.7981122012675331,-0.9763231510552843,-0.3806203729646537,8,0
659,-0.800897052974884,-0.9574344401025652,-0.48510077477245017,8,0
660,-0.7759468458295934,-0.9841450633187312,-0.6194775676385361,8,0
661,-0.7263857407639195,-1.0565811094069066,-0.7818694320175458,8,0
662,-0.6543194407497918,-1.1726406522136033,-0.9684299686931407,4,0
663,-0.5622071942950093,-1.3246115148293638,-1.1706161308378265,4,0
664,-0.45505642420616804,-1.4961265465851685,-1.3727224787925882,4,0
665,-0.34433806308541176,-1.6630193908992807,-1.5539172620757051,4,0
666,-0.2434332088445829,-1.8029499965725344,-1.6967467490766268,4,0
667,-0.160550152183772,-1.9018202461028055,-1.7921141105656702,4,0
668,-0.10149230476324018,-1.946264761391381,-1.8311104833124243,4,0
669,-0.0679685912537711,-1.922937817400449,-1.8033384097581275,4,0
670,-0.05236950758137648,-1.8245147429713882,-1.7013506955287194,4,0
671,-0.03893732904264021,-1.6564620040598546,-1.5281438006794876,4,0
672,-0.01732317576136927,-1.4360688884996182,-1.2992847691269083,4,0
673,0.011468410246916045,-1.1859103970271718,-1.038140129596143,4,0
674,0.043762558616256005,-0.9304251627748423,-0.7711747966905798,8,0
675,0.07930922613067531,-0.6913412663991805,-0.5214781597331668,8,0
676,0.12078216226325363,-0.4832372690487065,-0.30359608582085246,8,4
677,0.17097688109537962,-0.31221731358574956,-0.12318261587190453,0,4
678,0.23104946771871762,-0.17878455131652368,0.019291370854859106,0,4
679,0.3012973014911526,-0.08241509337472099,0.12406124487152562,0,4
680,0.38359620703813185,-0.02493584975045349,0.18952222455184742,0,4
681,0.4755490696514824,-0.001882205748609822,0.21998649516870097,0,4
682,0.5597277382309832,0.015243566937308065,0.24188221292270604,0,4
683,0.627473919863346,0.04558627330685177,0.27341450052164457,0,4
684,0.6825649787271985,0.07834537359795427,0.3043042450079745,0,4
685,0.7271778564989815,0.10371987859740739,0.32557991228246647,0,4
686,0.7629733817327986,0.12139108411139857,0.3380070342985003,0,4
687,0.7918950763314,0.1336754976113696,0.3448403743892774,0,4
688,0.8157505465102576,0.14230097589845658,0.34845861274803247,0,4
689,0.8359846048036405,0.1482832451861643,0.35024503003044094,0,4
690,0.8535317042156083,0.15226288262558788,0.3509972518996258,0,4
691,0.8688274027644463,0.15484448793903746,0.3512640472983315,0,4
692,0.8818915246748644,0.1566434347748853,0.3514925799482385,0,4
693,0.8925456009639965,0.15830202294762727,0.35207640799510975,0,4
694,0.9006286152951352,0.16033387713368036,0.3532724191820853,0,4
695,0.9061296861879641,0.16302592377146366,0.35519886129651396,0,4
696,0.9092588832353143,0.16639337562507012,0.3578036017592288,0,4
697,0.9104523246829636,0.17021682269340735,0.3608517954011594,0,4
698,0.9102740498687008,0.17411762203598755,0.36409562092665604,0,4
699,0.9093103085866455,0.17773258061724823,0.36723986004626785,0,4
700,0.9080217778416187,0.18075245644564364,0.37007926158781657,0,4
701,0.906686159724466,0.18297098128926179,0.3724931856702682,0,4
702,0.9053838861504809,0.18435246339913403,0.3744240969425549,0,4
703,0.9040455103499204,0.18497557463411063,0.3758879726525626,0,4
704,0.9024841713299858,0.18500756902104293,0.376970542657951,0,4
705,0.9005318600183568,0.1846913940986814,0.37779777594496455,0,4
706,0.8980472923208132,0.18423166395938897,0.3784925326329174,0,4
707,0.8950259970775551,0.18375916951137078,0.37916452523690364,0,4
708,0.8916086977402057,0.18332388139223887,0.379849189924847,0,4
709,0.8880050045332187,0.18288521617132084,0.3805747878479041,0,4
710,0.8844799487777113,0.18239782436647706,0.38133002762227086,0,4
711,0.8812214278933568,0.1817681584443941,0.3821401270851754,0,4
712,0.8783304794881924,0.18100635575159074,0.3830197565580752,0,4
713,0.8758145254408277,0.180129364490907,0.3839838071485908,0,4
714,0.8735856594931748,0.17920904673839072,0.38510764083033544,0,4
715,0.8715150374985088,0.17837199558085567,0.3864469528335764,0,4
716,0.8694623827132858,0.17772424824657038,0.38803512087779907,0,4
717,0.8673471005780481,0.17726520886888225,0.3898046326596876,0,4
718,0.8652219002259834,0.1768173893779832,0.3915684145695635,0,4
719,0.8633062075515211,0.17597242148961476,0.3930209052869056,0,4
720,0.8620338277816698,0.17419183651492823,0.3938730782714225,0,4
721,0.8620405190160595,0.17086761176145188,0.3940616693054305,0,4
722,0.8640217007282146,0.16550101290524688,0.39395478515509114,0,4
723,0.8684505145452797,0.15769094483405244,0.39457507162222355,0,4
724,0.8751255665273476,0.14698158682799345,0.39781119605586096,0,4
725,0.8825502683788548,0.1327938317920792,0.40669068044309015,0,4
726,0.8857049744625175,0.11890543064996284,0.41728434923876523,0,4
727,0.8828009182133723,0.10871788562565246,0.4210646320484675,0,4
728,0.8834503016832407,0.0932625366952192,0.4195137452034027,0,4
729,0.893007639176916,0.06209252268806031,0.4089090925063241,0,4
730,0.9122446900553329,0.0018066514458356608,0.38831437879231856,0,4
731,0.9357895800109344,-0.09717252750356874,0.35877986907409753,0,4
732,0.9833343438135359,-0.22804986851464745,0.3103318911498942,0,4
733,1.1610312056178764,-0.3528945930523267,0.25219687282723974,0,4
734,1.4406322310928141,-0.5006969760627701,0.2755960716818827,0,4
735,1.721296720239951,-0.6861848799361453,0.3535910358932249,0,4
736,1.9563411857034227,-0.8956821516691322,0.43063933906152757,0,4
737,2.0921460402320187,-1.15404446563682,0.47194560225050974,0,4
738,2.0760773618878563,-1.433644790419209,0.46364437913303447,0,4
739,1.7837439230707608,-1.7585325669006706,0.32951853431065864,0,4
740,1.094882688877474,-2.1278663874942474,0.07569213922425617,8,0
741,-0.03885013672944011,-2.4586332441705228,-0.24459239590921766,8,0
742,-1.6402303034838401,-2.604039052897001,-0.581019849726132,4,0
743,-3.6787330765444475,-2.4412354939997045,-0.8268540938239725,10,0
744,-6.019499757019397,-1.8774312026973559,-0.8688832132091493,3,2
745,-8.42339343781595,-0.8727246583664116,-0.635353999453686,3,2
746,-10.568015463943464,0.5292454787584794,-0.13660756926637496,7,3
747,-12.110310408069761,2.2085010325073777,0.5305099286101518,7,3
748,-12.771724597396265,4.017806964187927,1.223107268578401,1,3
749,-12.398487369196806,5.779127347579238,1.7676110212307132,1,3
750,-11.011741121467736,7.29126178620247,2.027112842362973,1,5
751,-8.812026638612828,8.373746769807545,1.945065038641455,9,5
752,-6.136261602450273,8.939423195605258,1.5401865791423175,9,5
753,-3.389576749533662,8.997540119958225,0.9113450905293581,6,5
754,-0.9358517990603237,8.638913255778816,0.20176024385379956,6,1
755,0.970112397216977,7.989896291163529,-0.451840732671389,2,1
756,2.2194085959548944,7.174171398404015,-0.9541320797934286,2,1
757,2.8570645651792357,6.293640465819458,-1.259033542563995,2,6
758,3.0349752879935865,5.4249970301457076,-1.3678339333483516,2,6
759,2.936467945517207,4.630951347903995,-1.3124924240744476,5,6
760,2.7190255077608154,3.9494747567728417,-1.1453351134367022,5,6
761,2.484386659120999,3.383439816739043,-0.9252285362896946,5,6
762,2.2795034092360833,2.905944214035345,-0.6969207480581273,5,6
763,2.0904968535313175,2.4901955388698185,-0.48516222364787903,5,6
764,1.8365362707375128,2.127005889659461,-0.29459771051070827,5,6
765,1.6395163462082913,1.809641433394932,-0.12094822513170073,5,4
766,1.5294256127511885,1.5091747476692536,-0.00015379581980780603,0,4
767,1.463237124127679,1.1865661097392148,0.05633836312714196,0,4
768,1.377267622027297,0.9033580782941831,0.10357158180587246,0,4
769,1.2940783594233756,0.674864006560542,0.15134939926731783,0,4
770,1.2287008933813894,0.5005327608011914,0.19610668607802334,0,4
771,1.1821104160343563,0.37009691268221306,0.23484498451674635,0,4
772,1.1470556605026667,0.27155836874646333,0.26843903012494663,0,4
773,1.1182509850102884,0.19994395123081932,0.29232023628182846,0,4
774,1.0931374552093227,0.15880180467513375,0.29497180600189626,0,4
775,1.0742298350421902,0.13350556867076796,0.2874100857972144,0,4
776,1.0630536735854597,0.10889334166096128,0.2824669378560745,0,4
777,1.056788612934002,0.08386865780955657,0.2788136449261784,0,4
778,1.0531516765166362,0.05960823221419493,0.2749388075168347,0,4
779,1.051171286122246,0.03610802175635497,0.2721536435367603,0,4
780,1.0496543513783978,0.014290137860838445,0.27036473520661997,0,4
781,1.0475791253111681,-0.005002237039109111,0.26886298760807364,0,4
782,1.044507337106174,-0.02192518899421885,0.26745432165427957,0,4
783,1.0403215864936026,-0.03723069243386588,0.26594110081373357,0,4
784,1.0350522430915425,-0.051826704796259296,0.26407238666891536,0,4
785,1.0287758943205452,-0.06647650081268193,0.2617046108559979,0,4
786,1.02150857489492,-0.08154550543065006,0.258981438163215,0,4
787,1.0132024269511497,-0.09700585318022314,0.25631523092165825,0,4
788,1.0037371750051494,-0.11256306078129173,0.25428958011486463,0,4
789,0.992972596403685,-0.12794592643715105,0.2534141914303447,0,4
790,0.9807780077899534,-0.14314968687430754,0.2538751825950559,0,4
791,0.9670574798500348,-0.15857170672683651,0.255423826954933,0,4
792,0.9516933552491323,-0.17501769543643508,0.2573762699310768,0,4
793,0.9345672435853586,-0.1935029883448733,0.2588298223757269,0,4
794,0.9154799480848131,-0.21502095765290594,0.25891647212292523,0,4
795,0.894160876525133,-0.24029183033685825,0.25706618452052027,0,4
796,0.8702608622467072,-0.2696649754004033,0.25311011895157476,0,4
797,0.843397636220082,-0.30312289132119585,0.24727392518660923,0,4
798,0.8131790940488604,-0.3404747193571251,0.23999119991851367,0,4
799,0.7792729108636459,-0.3815939608578058,0.23168452535754158,0,4
800,0.7414114831644647,-0.4265989280601918,0.22257864649163017,0,4
801,0.699466869427065,-0.47588356651821784,0.21264688227578937,0,4
802,0.6534663819062572,-0.5299529269705188,0.20167222712607674,0,4
803,0.6036579237299831,-0.5891236097270559,0.18943442114330497,0,4
804,0.5505093170946683,-0.6532030970296127,0.17592467693704011,0,4
805,0.4947077877977437,-0.7213960095247438,0.16141537329347075,0,4
806,0.4370448177379436,-0.7924757090671505,0.14638665942421247,8,4
807,0.37826309053795215,-0.8652683316417558,0.13116530001613125,8,4
808,0.31891483997876874,-0.938977524520002,0.11573980610011438,8,0
809,0.2594072843552749,-1.0132058396246517,0.09965924579793223,8,0
810,0.20008741698266674,-1.0876245213780495,0.08234269937218608,8,0
811,0.1414899779986764,-1.161658376899471,0.06345482892339309,8,0
812,0.08440558167622539,-1.2343044085458017,0.04317477588743146,8,0
813,0.029944472906823942,-1.304279105265363,0.02222923634396088,8,0
814,-0.02069436795490702,-1.3703089100556318,0.00157528510187554,8,0
815,-0.06655755378966077,-1.4314697028243297,-0.01792916988360485,8,0
816,-0.10714559599069813,-1.487267485688707,-0.03577256893043168,8,0
817,-0.1424391828676561,-1.537583903197706,-0.0518585599581712,8,0
818,-0.172784313486551,-1.5824923749881032,-0.06640987222758207,8,0
819,-0.19865289206906195,-1.6221262431288623,-0.0797825648150419,8,0
820,-0.2204427129727737,-1.6564649672277534,-0.09237127933826154,8,0
821,-0.23855326467027152,-1.6854145808063408,-0.10444971813870027,8,0
822,-0.25325856737477775,-1.70874855624252,-0.11605482476177058,8,0
823,-0.2648994677643907,-1.7263666766052739,-0.12666333519364512,8,0
824,-0.27365862656294393,-1.7387853127470831,-0.13445916553181136,8,0
825,-0.2787891494556714,-1.7484473475438855,-0.13463314734955265,8,0
826,-0.2814671017297542,-1.7545777595385201,-0.12836637453589309,8,0
827,-0.2860843332004254,-1.7504824068232334,-0.1273785728513201,8,0
828,-0.29180415744068533,-1.7382412280788475,-0.1297404839207556,8,0
829,-0.2988853810511058,-1.718336726651375,-0.1358521445209284,8,0
830,-0.3093278436649621,-1.6896791525158692,-0.14764032168809318,8,0
831,-0.32576594160290123,-1.6510556893133332,-0.16709690471017846,8,0
832,-0.34984375392816414,-1.6018136157214582,-0.1957964886801863,8,0
833,-0.38326182238147743,-1.5409567186886046,-0.23344632648295593,8,0
834,-0.4297276276346285,-1.4660964915992147,-0.27631974723239483,8,0
835,-0.4965951011637191,-1.3741324785859643,-0.31751590629024534,8,0
836,-0.5873961673725874,-1.270934942112592,-0.3566408249267843,8,0
837,-0.6816715807118449,-1.1870109777158009,-0.4147409582634772,8,0
838,-0.755394531955368,-1.1492606805527035,-0.5096797266158858,8,0
839,-0.7982421971317895,-1.166996926049971,-0.644581281464777,8,0
840,-0.8051340701718945,-1.244756966029644,-0.8195910414932646,8,0
841,-0.7747512155180749,-1.3815103700688385,-1.030792820113124,4,0
842,-0.7112858438014873,-1.5645939443812444,-1.2646513868481564,4,0
843,-0.6231273758243144,-1.7699989975321766,-1.4983947901035357,4,0
844,-0.52117318368646,-1.9685770111740455,-1.705837596812309,4,0
845,-0.4187831432904015,-2.1325498840392756,-1.8637801612374878,4,0
846,-0.32780289160247983,-2.2424003335627636,-1.9579069020585926,4,0
847,-0.25714649185879507,-2.286265716908049,-1.9815002989459354,4,0
848,-0.21163284940990884,-2.25734102696641,-1.9322797722875293,4,0
849,-0.19095155004357067,-2.154570317544115,-1.812728232967339,4,0
850,-0.18826973076204342,-1.9852456585635765,-1.6320191314571113,4,0
851,-0.18862526105509875,-1.7666967443336026,-1.4073791125956252,4,0
852,-0.17880327181831387,-1.5208601617529764,-1.16025683363242,4,0
853,-0.15682488724665464,-1.2669081055265972,-0.9102999063402466,8,0
854,-0.12393006459589466,-1.0210891024815385,-0.6734688609401867,8,0
855,-0.07901203232953581,-0.7957980211908606,-0.4599921810692219,8,0
856,-0.020112294869774026,-0.5974989549368617,-0.27379208267140775,8,0
857,0.05289144428795595,-0.4282254872296306,-0.11569890386274617,8,4
858,0.1389869045814387,-0.29036138595311295,0.012064832749122447,0,4
859,0.24007135254211226,-0.19187907718010105,0.10208779262045282,0,4
860,0.35475828300336415,-0.13735302162668642,0.1499185149303829,0,4
861,0.46180394933778635,-0.10418087884812538,0.175299645940878,0,4
862,0.5503069432130382,-0.06856724920227253,0.2003915624557857,0,4
863,0.62495334120416,-0.025460148542223667,0.23126484358211272,0,4
864,0.6888063603345502,0.017541188927347365,0.2618194425359102,0,4
865,0.7409094682083466,0.053150322311208885,0.285492110510851,0,4
866,0.7807696409817515,0.07940141032060585,0.3006114534364165,0,4
867,0.8103715145973576,0.0977077156921626,0.30900071770516163,0,4
868,0.8327497173526329,0.1102810338905728,0.31312713792650587,0,4
869,0.8503938455314004,0.11889079762543839,0.3148608611601681,0,4
870,0.8648054259165744,0.12479837452887545,0.31534973282053447,0,4
871,0.8766636237377945,0.12890278105694372,0.31529418881273213,0,4
872,0.8861909230425178,0.13186847419101078,0.3151475557965551,0,4
873,0.8934318167029071,0.134179405437227,0.3152227514667319,0,4
874,0.8985252222545639,0.13622751084360926,0.3157714934368442,0,4
875,0.9017425720507616,0.1382821799855113,0.3169280141418963,0,4
876,0.9034957335173477,0.14048629632822027,0.31869343873448736,0,4
877,0.9042586603380652,0.14284450047976102,0.3209333619380928,0,4
878,0.9044948902713423,0.14519578024061763,0.32335933016348944,0,4
879,0.9045864628118044,0.1472710933945502,0.3256179036189911,0,4
880,0.9047774497372034,0.1488112718188153,0.3274045337490566,0,4
881,0.9051598353238922,0.1496659287725496,0.3285064966407765,0,4
882,0.905678704272615,0.14983408573357587,0.3289651289614277,0,4
883,0.906189276865055,0.14952410462089546,0.3290239763542535,0,4
884,0.9065171255066725,0.1490794860756546,0.32909998475884306,0,4
885,0.9065340405212429,0.1489174901288178,0.32970254805591687,0,4
886,0.9061930715562666,0.14933020678786396,0.331210531440916,0,4
887,0.905546373062252,0.15042502253710094,0.33376318305135494,0,4
888,0.904679184335316,0.1520614057727776,0.33724018791943966,0,4
889,0.9036648557647974,0.15399013728116745,0.341286350079429,0,4
890,0.9025238286381135,0.15586020398316053,0.3455291015832136,0,4
891,0.9012576116679374,0.15741575680730308,0.34963165366114646,0,4
892,0.8998352654099127,0.15849924590830414,0.35345481063474543,0,4
893,0.8982286944313528,0.15911977594291,0.35696082273974966,0,4
894,0.8964429846968144,0.15938063443270825,0.3602217587988397,0,4
895,0.8945196629575245,0.159423236359258,0.36333858824403564,0,4
896,0.8925434807248345,0.15937337561288858,0.3662753282305061,0,4
897,0.8906523974758165,0.15926200796014803,0.3688794612516344,0,4
898,0.8889737350978916,0.15897564939901068,0.37092395489529134,0,4
899,0.8876127757749316,0.15818534130201628,0.37219545305127694,0,4
900,0.8865141434961666,0.156277965426071,0.3726920206739535,0,4
901,0.8853803164235712,0.1523327855460294,0.37283581273714966,0,4
902,0.883527483186639,0.14516072790882684,0.3737082685286638,0,4
903,0.8796122052649977,0.13301894640821751,0.37742836072267405,0,4
904,0.871029392985677,0.11280061028819911,0.387800641864644,0,4
905,0.8531058232658885,0.08012356807791106,0.4101431402946413,0,4
906,0.8221698138373247,0.053878204614123876,0.4299416418779492,0,4
907,0.7953158927645496,0.08780976106734556,0.4010155478859935,0,4
908,0.7779871379969298,0.12655155613593722,0.3595853499441559,0,4
909,0.7751046887314497,0.12868484793909668,0.32133609583450445,0,4
910,0.7852003102738906,0.08440349440096577,0.2923649310612931,0,4
911,0.7971314801297102,-0.0019863730519537543,0.3103994603178597,0,4
912,0.7474927442007739,-0.14616909226471406,0.396211781116086,0,4
913,0.5972271461447703,-0.3675482337055359,0.5665442867063443,0,4
914,0.37414829012484724,-0.6744330118551027,0.8113756839603931,0,4
915,0.03699811601945188,-1.0732876398968763,1.129271470008384,8,4
916,-0.4483100126829126,-1.5416456324712222,1.5054616237842628,8,0
917,-1.0773704189660018,-2.033429139385357,1.9232349845135264,8,0
918,-1.839710354325803,-2.5278780703864028,2.319698123815249,10,0
919,-2.7216800369366507,-3.064673150640285,2.5689351400206446,10,0
920,-3.7348586550442016,-3.623953684385024,2.609163035700977,10,2
921,-4.899741150117964,-4.147378494248721,2.421292502757534,10,2
922,-6.21374604019373,-4.582771417877951,1.9894302415091545,10,2
923,-7.662951096460043,-4.831325709888035,1.3648042024085079,3,2
924,-9.190309860611416,-4.764019599256073,0.6577879352562552,3,2
925,-10.667168941375582,-4.269557473132199,-0.00858192504693675,3,2
926,-11.890512272474941,-3.263826706463432,-0.5115998370110422,7,2
927,-12.624392462189778,-1.7083251297453745,-0.752561479031524,7,3
928,-12.660287149176423,0.33567435080648944,-0.7117030099643422,7,3
929,-11.87400066216316,2.6664079563987495,-0.4813101514952061,7,3
930,-10.28501717194254,5.029695458795587,-0.17648666913852543,1,3
931,-8.049436248618619,7.119819204364267,0.05737888770189394,9,5
932,-5.437235011059278,8.663311417299619,0.10091411860848544,9,5
933,-2.784536364423663,9.500693557879421,-0.09185433785025213,6,1
934,-0.4208426518866514,9.628634925715835,-0.4764685284681429,6,1
935,1.4163482923126822,9.17946034481241,-0.9380069289515388,2,1
936,2.626902220977203,8.350320931479292,-1.3477365109344566,2,1
937,3.2549435980857213,7.334486984219338,-1.620402910904697,2,1
938,3.440577663496912,6.287706366222377,-1.7341652540937462,2,6
939,3.3445213330097157,5.316266819772939,-1.7131021031156428,2,6
940,3.1067441885297242,4.481408686028391,-1.590999249066673,5,6
941,2.8225209074131676,3.8150440011586606,-1.3889468536680127,5,6
942,2.558162131986225,3.2971453414001575,-1.1384362484918418,5,6
943,2.3459103570428983,2.869036797806752,-0.8796854988783346,5,6
944,2.1434247703574147,2.4871616320089207,-0.6364180477153569,5,6
945,1.9549567744566032,2.138382373420101,-0.41939342125177737,5,6
946,1.785732440807608,1.7994701322946132,-0.2423105010229002,5,4
947,1.6476939544134368,1.4361603576596949,-0.137337156507954,5,4
948,1.5257655515389048,1.1033743793333344,-0.0648003666888531,0,4
949,1.4084297249620503,0.8338593562912633,0.017405369716016042,0,4
950,1.309530920712265,0.6184603840555806,0.09676083758283849,0,4
951,1.2375967949244058,0.45273135610374593,0.16428574646060976,0,4
952,1.1875614384200175,0.3289603311510617,0.2185344769736012,0,4
953,1.1491065506660816,0.2364993420240138,0.26093499677892495,0,4
954,1.1143428409247436,0.17025658060659335,0.2881002556189409,0,4
955,1.082089070276472,0.13341546438392585,0.29116556545122896,0,4
956,1.0589181750275347,0.10981094861552247,0.28449134447199514,0,4
957,1.046044672657562,0.08542773386239394,0.27839356973194035,0,4
958,1.0400921223953727,0.05979336511466266,0.2721342403434977,0,4
959,1.0386916781180524,0.03375370318408709,0.2667481880983863,0,4
960,1.0398017740526595,0.008654554808061007,0.2628171608573627,0,4
961,1.0416947693041418,-0.014012915143707911,0.2598772088251748,0,4
962,1.0434611817255879,-0.033812265931530715,0.2578311835612088,0,4
963,1.0446964929102354,-0.051009800706200314,0.2565768116702576,0,4
964,1.0451885694136767,-0.06620870758903431,0.25597087992838097,0,4
965,1.0447501600867932,-0.0800436578817259,0.25588180959231327,0,4
966,1.0431424979733899,-0.09306346032269185,0.25628854899048786,0,4
967,1.0400807744418534,-0.10569462949737617,0.2572527563197813,0,4
968,1.0353082449327555,-0.11825981373054616,0.258842418258938,0,4
969,1.028653946128067,-0.13104753822667464,0.2610971025704,0,4
970,1.0200630413438188,-0.1443395785411113,0.26402380150853955,0,4
971,1.0096010615309094,-0.15847193227283432,0.26757065923671186,0,4
972,0.9974144174202375,-0.17386322427310477,0.27163614236344086,0,4
973,0.9836333328210041,-0.19095832504923416,0.27608803677388044,0,4
974,0.9682856335870211,-0.21018380461843303,0.2807904224443698,0,4
975,0.9511995198176968,-0.23190348777402542,0.28560701237578323,0,4
976,0.9320486993134274,-0.2564604453179135,0.29040545900390113,0,4
977,0.9103775400811797,-0.28431162554688977,0.29498584148122453,0,4
978,0.8856988113238182,-0.3160770607248307,0.2990997626185924,0,4
979,0.857482922189367,-0.35243536222796157,0.3025194018098363,0,4
980,0.8251537156866172,-0.3939054438149653,0.3051498774329249,0,4
981,0.7880973670885879,-0.44064700264631285,0.30705202318259034,0,4
982,0.7456913700069162,-0.4924199565789076,0.3083339392358433,0,4
983,0.6974490773282235,-0.5487159458564086,0.3089514399184303,0,4
984,0.6431395343618962,-0.6089435324001242,0.308630031159165,0,4
985,0.5828945113463462,-0.6725226180143605,0.30692084133965225,0,4
986,0.5172988937701017,-0.7388990664994023,0.3033628457898967,0,4
987,0.4473739042152334,-0.8074523799721146,0.29758884666065943,0,4
988,0.37447269305815667,-0.8774609156764831,0.2893862940818541,8,4
989,0.3001243136819867,-0.9481516086994803,0.2786814970571978,8,4
990,0.22586562837097796,-1.0187015422939087,0.26547815057757274,8,0
991,0.1531401543809853,-1.0883279420674274,0.24996963380583434,8,0
992,0.0832213551626799,-1.1561969486039771,0.2325809610089088,8,0
993,0.017138127057997356,-1.221438391811699,0.21397000025557647,8,0
994,-0.04436475914464759,-1.283242073542828,0.19486276709324585,8,0
995,-0.10079448828823287,-1.3409457244751277,0.17592498472984555,8,0
996,-0.15195144004588318,-1.3941149602529677,0.15752692043329802,8,0
997,-0.1978146054163895,-1.4425253047201856,0.13981792097572388,8,0
998,-0.23846938555185643,-1.486021939642535,0.12275275628998655,8,0
999,-0.2740283608981603,-1.5245223613223242,0.1062353697264165,8,0
1000,-0.3046086205140073,-1.5578665088618762,0.09015175050814456,8,0
1001,-0.33026679158186373,-1.5859694986348503,0.07446031798420014,8,0
1002,-0.3511285107307207,-1.6087806106453093,0.05917580371943829,8,0
1003,-0.36742108909233484,-1.6263325840818763,0.044632705230158935,8,0
1004,-0.37942051716411185,-1.638956083017345,0.031982666439730516,8,0
1005,-0.38711567594603824,-1.647925978998993,0.02436389410705699,8,0
1006,-0.3904382098424764,-1.6548488896931521,0.025566233856447653,8,0
1007,-0.3933023106666298,-1.6543500836482552,0.027640954683399378,8,0
1008,-0.3980851504142626,-1.643529791437361,0.0256806188185759,8,0
1009,-0.4041784710508037,-1.6243803924592162,0.021456027624370145,8,0
1010,-0.4119268358158815,-1.597496783067872,0.013442356220255887,8,0
1011,-0.4227034388868664,-1.5629873844217899,-0.0010181960045296235,8,0
1012,-0.4381691726663101,-1.5211936953249188,-0.024605302232796823,8,0
1013,-0.45920301590106266,-1.4732967214474673,-0.059465748593484816,8,0
1014,-0.48601638730186497,-1.4211575014485112,-0.10626531780911667,8,0
1015,-0.5194185656427832,-1.3662370797988033,-0.16331638457329886,8,0
1016,-0.5620435604639791,-1.3078539689417394,-0.22573014468201702,8,0
1017,-0.6193302497398571,-1.2418384174077852,-0.28560621668991604,8,0
1018,-0.6958799419770718,-1.1655911292436127,-0.33725574720540286,8,0
1019,-0.7803501745939894,-1.0955039871240448,-0.3917868682477581,8,0
1020,-0.8465902248284066,-1.0631907085522927,-0.4731947584082958,8,0
1021,-0.8814691126458518,-1.082636358282413,-0.5905054547336701,8,0
1022,-0.8846469645725014,-1.1523539199277077,-0.7399801634488404,8,0
1023,-0.8583197869533705,-1.2681037421022952,-0.9164141502807077,4,0
1024,-0.8049253127953172,-1.4249345495427925,-1.1146989579260735,4,0
1025,-0.7278616542553618,-1.6139091693071805,-1.3264052603943945,4,0
1026,-0.6333438535220283,-1.8178165830956834,-1.5362493264944355,4,0
1027,-0.5318406426446013,-2.0103985792623864,-1.7213718530602653,4,0
1028,-0.434415118868071,-2.1653866527540266,-1.8596165242755498,4,0
1029,-0.34928993739656783,-2.264354465294531,-1.9364089548317704,4,0
1030,-0.28452866261150334,-2.2937066655032416,-1.9418251754925187,4,0
1031,-0.24538401929825218,-2.246333353703747,-1.8721753151997536,4,0
1032,-0.23059732751596926,-2.124591035226055,-1.7325603550458584,4,0
1033,-0.22986032257719585,-1.9423128775616463,-1.538375608932901,4,0
1034,-0.22921349143970826,-1.719408890109537,-1.3098743479743136,4,0
1035,-0.2211671414286872,-1.4747010958148885,-1.0664598244660637,4,0
1036,-0.20404653865293948,-1.2239431142967772,-0.8239759582371963,8,0
1037,-0.17631642650514212,-0.9808780651621801,-0.5941961745871147,8,0
1038,-0.13508607255027374,-0.7566686180786395,-0.3847844793770197,8,0
1039,-0.07806489886554577,-0.5584676042413782,-0.200782450077007,8,0
1040,-0.005418054207955596,-0.39000905931819757,-0.0465270690382459,8,4
1041,0.08099200454575965,-0.2539979096920484,0.0742096415096793,0,4
1042,0.1797079971887327,-0.15374733179095834,0.15822799762149262,0,4
1043,0.2889289024730404,-0.09088044822385095,0.2049120676333574,0,4
1044,0.3971021413971508,-0.05194878321775117,0.22779229345960647,0,4
1045,0.4925440939221187,-0.013692715908003203,0.24979440074622902,0,4
1046,0.5763339192352354,0.030116329725898786,0.27815008496964283,0,4
1047,0.6494022392235717,0.07067615939883688,0.3046553590892826,0,4
1048,0.7092539986227472,0.10197109480964722,0.3230331307348938,0,4
1049,0.7551314741991294,0.12430044620564573,0.33340134991563986,0,4
1050,0.7891814322995911,0.14002801120002284,0.3382693304728171,0,4
1051,0.8146619747384104,0.1511603337220446,0.3398777447508606,0,4
1052,0.8344558569485535,0.15896839032968962,0.3396591085892541,0,4
1053,0.8504748264969969,0.16431223452109917,0.3384682699670314,0,4
1054,0.8637226196434235,0.1678604672942345,0.3368853528870882,0,4
1055,0.8746844089329937,0.17017231215149103,0.33527884264636,0,4
1056,0.8835896034991767,0.1716164650085044,0.33386339032876877,0,4
1057,0.890658361165768,0.17250310249768172,0.3327280393733576,0,4
1058,0.8960746521802309,0.1730268451751061,0.3319166515371275,0,4
1059,0.900095835623828,0.17341453371361037,0.33142448844113226,0,4
1060,0.9029897715580477,0.17377340044959538,0.3312554441525201,0,4
1061,0.9050237850134564,0.17422303368412656,0.3314176559052272,0,4
1062,0.9063566604313671,0.17485459343041668,0.3319733556362947,0,4
1063,0.9070179627515496,0.1757667038891666,0.3329889836830002,0,4
1064,0.9069146187191394,0.17701743278226997,0.33456201667044005,0,4
1065,0.9058933245156388,0.1786031410073161,0.33675376365422194,0,4
1066,0.9038299111630258,0.18048354052223795,0.3395141956111335,0,4
1067,0.9006918446985483,0.18254847784136302,0.34277057620329915,0,4
1068,0.8965655892648983,0.18469988390312392,0.34640014628348537,0,4
1069,0.8916355695954243,0.18683904762376063,0.35027747628309336,0,4
1070,0.8861323087127498,0.18888743573877523,0.35427202162097077,0,4
1071,0.8802783497682694,0.19079236754404835,0.3582895955640493,0,4
1072,0.8742460458897726,0.19256639992276967,0.36226637542811796,0,4
1073,0.8680930110735091,0.19425187091588467,0.36621007723281956,0,4
1074,0.8618251438006236,0.195915156543276,0.3701690641463843,0,4
1075,0.8553965480673704,0.19765028162498047,0.37420993370154265,0,4
1076,0.8488123517534291,0.1994958289047542,0.3783454633017071,0,4
1077,0.8421000097875867,0.20141704321296144,0.3825365053892082,0,4
1078,0.8353542207290566,0.20331039368212417,0.38666043337672007,0,4
1079,0.8286771733364864,0.2050126180217765,0.3905233275144051,0,4
1080,0.8222311164609131,0.20627886229798167,0.3939335506075613,0,4
1081,0.8163266384478152,0.20684192340257604,0.3966983149271797,0,4
1082,0.8115315032610583,0.20628061472795012,0.39869322858256095,0,4
1083,0.8086488009327776,0.2041585258670248,0.40003274432645425,0,4
1084,0.8084318542595315,0.20010324109000732,0.40129711762265347,0,4
1085,0.8110233336355555,0.19391644895142557,0.4038882463608386,0,4
1086,0.815179306350904,0.18548788251246306,0.410348315706159,0,4
1087,0.8180267750665695,0.1745283507180578,0.42504377061587484,0,4
1088,0.8161865522675041,0.16220251142740458,0.4484962414198773,0,4
1089,0.8099970049869726,0.15548011342063978,0.4587691086269186,0,4
1090,0.8146057594748375,0.13986290058849526,0.4558323209478386,0,4
1091,0.8330305270901383,0.10294317534629141,0.43996674045145046,0,4
1092,0.8611893885001406,0.035408347055116356,0.41275780432229836,0,4
1093,0.8908848139748299,-0.068925583891132,0.37493345186210686,0,4
1094,0.9397584679524406,-0.20063268273760848,0.32608381432223416,0,4
1095,1.1318766865379266,-0.3233121305590939,0.28329685166879337,0,4
1096,1.4271712180042957,-0.4962008389366307,0.3081889073185001,0,4
1097,1.7182864016810362,-0.6879501452713879,0.37085468713879977,0,4
1098,1.9635196069089735,-0.8817456844791017,0.451335686279253,0,4
1099,2.1057987587442937,-1.1178084587070416,0.49583435248103214,0,4
1100,2.0907903937968744,-1.3989752531737345,0.45874414884187503,0,4
1101,1.8020607262666317,-1.7359034897185943,0.2928544744066183,0,4
1102,1.1083709963065127,-2.115484737394016,-0.005565601444106389,8,0
1103,-0.033543129495022264,-2.4624804433326837,-0.3933854826689798,8,0
1104,-1.6386084719121732,-2.62758068515786,-0.8078351639664082,4,0
1105,-3.669353954046959,-2.485272983585882,-1.1315841199688301,10,0
1106,-5.988437074654612,-1.9470149336035054,-1.2490066320906106,3,2
1107,-8.365998416794492,-0.9723175599557529,-1.0912623264088064,3,2
1108,-10.498884657131347,0.4183027070591119,-0.6514287923933376,7,3
1109,-12.058600449283379,2.1315834138357963,-0.006298610828700825,7,3
1110,-12.764742372846436,4.020333107830436,0.7039775004582505,1,3
1111,-12.455786471152463,5.893525112604845,1.304146359811996,1,3
1112,-11.139986057219877,7.5366681532092565,1.645683513917762,1,5
1113,-9.008358255631778,8.747361717809946,1.6612531591936546,9,5
1114,-6.388365681192086,9.417486505731972,1.3576992554746792,9,5
1115,-3.6771391225621843,9.539159243080675,0.8188918825229887,6,5
1116,-1.2415589532715505,9.190106922533529,0.176742190552061,6,1
1117,0.6597086283074004,8.498477251297524,-0.43553234482961106,6,1
1118,1.915731157054762,7.6043609112976664,-0.9167309025136358,2,1
1119,2.571007552373763,6.633314780894824,-1.2139584879401657,2,1
1120,2.776123044831335,5.681726996634373,-1.323216502929537,2,6
1121,2.7116719767188147,4.818371818446595,-1.2762071041216319,2,6
1122,2.528007335019714,4.079889968997967,-1.1200260718028332,5,6
1123,2.3225015765062413,3.468034447061084,-0.902142462777082,5,6
1124,2.13331512154057,2.9600486725055415,-0.6673583484461276,5,6
1125,1.9374461600012747,2.51648562811823,-0.46097032511455394,5,6
1126,1.631542560041932,2.138361548229072,-0.278585388141232,5,6
1127,1.479623677220897,1.8224390331532228,-0.10799220057048321,5,4
1128,1.3791188377300143,1.5349518718195534,0.024849904815426458,0,4
1129,1.3189642588145714,1.2202742127999497,0.09323712900437647,0,4
1130,1.2610047216175937,0.9140738497409568,0.12206699868210413,0,4
1131,1.200385843373468,0.6686607024960248,0.15517654479765022,0,4
1132,1.1525758907958616,0.48748705152002175,0.19503049780273576,0,4
1133,1.1181394569143084,0.35603390878944674,0.2347712730786282,0,4
1134,1.0935549087164107,0.2596362825468316,0.2704524541075075,0,4
1135,1.0751064053408852,0.19202622487347115,0.2952444501149706,0,4
1136,1.058536131352601,0.15448464341456522,0.29762047865994923,0,4
1137,1.0460736499492937,0.13150684076438635,0.2882910858919954,0,4
1138,1.0404929323753196,0.10812642828072304,0.28084814875021963,0,4
1139,1.0395105345435778,0.08371693770610884,0.27487786864921904,0,4
1140,1.0410373370289387,0.0595703849373857,0.2699087083490344,0,4
1141,1.0438192096507313,0.036348009267362084,0.26653245532069014,0,4
1142,1.0464771033411224,0.01532163347932208,0.2633965428133219,0,4
1143,1.0484185372293338,-0.0033775825503467504,0.2599059353367754,0,4
1144,1.0494859448974323,-0.020371524209490104,0.2559617864459136,0,4
1145,1.0496859397485687,-0.03651576519711981,0.2515723797230519,0,4
1146,1.0490206890864149,-0.05262246132748895,0.24682598615150408,0,4
1147,1.0474455329896306,-0.06929872829047547,0.24187229259398124,0,4
1148,1.0448403804624926,-0.08687723377924034,0.2368634188421594,0,4
1149,1.0411113516874921,-0.10543039425353276,0.23193757189176503,0,4
1150,1.0361588497820733,-0.12484470223772777,0.22719783100790922,0,4
1151,1.029965790716589,-0.14499027502908998,0.22264944005802337,0,4
1152,1.0225601623576792,-0.1658497430554272,0.21819153938863295,0,4
1153,1.0140065376098202,-0.18765513756152494,0.21356132163542604,0,4
1154,1.0044180310163153,-0.21084440235331042,0.20844077635670277,0,4
1155,0.9938985835175875,-0.23597281258157715,0.20254082072099033,0,4
1156,0.9825145828605597,-0.2635398922954934,0.19573205712178027,0,4
1157,0.9702119233982456,-0.29392273900570665,0.1880489572289228,0,4
1158,0.956805648990028,-0.327378652838504,0.1796260799959015,0,4
1159,0.9418970137212782,-0.36418545229580374,0.17050223366938294,0,4
1160,0.9248683286136412,-0.4047058282289892,0.16053900300302593,0,4
1161,0.9048504324892033,-0.4494352610958653,0.14937405906817208,0,4
1162,0.8807565777171628,-0.49888933031007565,0.13654178259134103,0,4
1163,0.8514001808308325,-0.5535182129997651,0.1215870294354833,0,4
1164,0.8157600693153929,-0.6134925613876908,0.10430369497717203,0,4
1165,0.7733369792844142,-0.6785547814958423,0.08493360446479653,0,4
1166,0.7244607582611395,-0.7479386987443801,0.06424806588816954,0,4
1167,0.6702186235634199,-0.8205194332043533,0.04332293451161803,0,4
1168,0.6120468672555411,-0.89508103226011,0.023145881797794456,8,4
1169,0.5512976015861221,-0.970592427524825,0.004264585440616264,8,4
1170,0.4890221751442154,-1.0462310209770591,-0.013284834454402586,8,0
1171,0.4259248875186011,-1.121378264056773,-0.029771985826317647,8,0
1172,0.36249416000341006,-1.1954252346249046,-0.04558997970381081,8,0
1173,0.29916599421456586,-1.2677829225125747,-0.06108491561292705,8,0
1174,0.236488297666756,-1.337840971442846,-0.076495329452738,8,0
1175,0.17527233836329598,-1.4050122744922757,-0.09199485638588682,8,0
1176,0.11649596736636374,-1.4688377853712136,-0.10771445622368594,8,0
1177,0.06112217739123401,-1.5290167063953346,-0.12373634044664639,8,0
1178,0.009980224252592394,-1.585388775415107,-0.14002919959601615,8,0
1179,-0.036274731291770904,-1.6377503499482389,-0.1564118291555328,8,0
1180,-0.07715276850412923,-1.6858358403289393,-0.17250149630723519,8,0
1181,-0.11231651923092004,-1.72938296477939,-0.1878405957540673,8,0
1182,-0.14154905106388274,-1.7681122994525185,-0.2020954513955302,8,0
1183,-0.16488341904604115,-1.8019313088352331,-0.2151907648864193,8,0
1184,-0.1825331323562398,-1.8308937503928442,-0.2274122647388722,8,0
1185,-0.19500191788592144,-1.855226765804374,-0.23931825115840405,8,0
1186,-0.20305090499317793,-1.8750018260242083,-0.2514009360846108,8,0
1187,-0.20770801357198415,-1.890033710165004,-0.26346465501910576,8,0
1188,-0.20985179183272967,-1.900204059667157,-0.27380820706299214,8,0
1189,-0.20917016210076964,-1.907150950738827,-0.2773520990224048,8,0
1190,-0.20513363018735672,-1.9124085348898698,-0.26982961339362277,8,0
1191,-0.20309750421094003,-1.9069951442161737,-0.2648117108408724,8,0
1192,-0.20381959570840674,-1.890320125313565,-0.262881442780208,8,0
1193,-0.20781416778203607,-1.8632826575649337,-0.26295467443348836,8,0
1194,-0.21729531075947922,-1.825114234356785,-0.26694535615259,8,0
1195,-0.23478908877419033,-1.7746595839478776,-0.276610238034324,8,0
1196,-0.2619589272573273,-1.7106922563684386,-0.2927591930455466,8,0
1197,-0.2998722294697085,-1.6317447838332506,-0.3148150681820039,8,0
1198,-0.35272686069934234,-1.535548234758901,-0.34023134194853644,8,0
1199,-0.4270235176912041,-1.4235718951525256,-0.36852471650268054,8,0
1200,-0.5167471175641266,-1.314662967293293,-0.41197507213356704,8,0
1201,-0.6028742090548732,-1.2363558380744304,-0.48833192626278493,8,0
1202,-0.6697216384731626,-1.205149898681278,-0.6046636871199264,8,0
1203,-0.7069186387194398,-1.230556786482658,-0.7623031173443662,8,0
1204,-0.7086082035774243,-1.3174449717876553,-0.9600456581770463,4,0
1205,-0.67303258471968,-1.4611478405463945,-1.1894214406588894,4,0
1206,-0.6046555380153428,-1.6433888798920067,-1.4313513660227248,4,0
1207,-0.5133349427721327,-1.8367650500518833,-1.6598831583610567,4,0
1208,-0.41115446826430574,-2.0127752631327573,-1.849605530659143,4,0
1209,-0.3104337508057938,-2.1477081932090782,-1.980915909095062,4,0
1210,-0.22296599893543753,-2.224239347399368,-2.0415893277078974,4,0
1211,-0.15842334725784177,-2.23072746018295,-2.025886692674677,4,0
1212,-0.1196722581683546,-2.162308711422981,-1.93473863989591,4,0
1213,-0.10220729040627982,-2.0228806693298225,-1.776564479820138,4,0
1214,-0.09662428870441066,-1.8256561789949486,-1.5667714310697718,4,0
1215,-0.09151330662496132,-1.5908319599929321,-1.325753010966247,4,0
1216,-0.07925325798263512,-1.3393026246203408,-1.0736354654473816,4,0
1217,-0.058300845360693264,-1.0883911895048086,-0.8264502581920282,8,0
1218,-0.02870174064143069,-0.8515467351861444,-0.5948549487500358,8,0
1219,0.010990124888789579,-0.6379456964250944,-0.3848742874374237,8,0
1220,0.06220610534718354,-0.4519189133729743,-0.20015791292266,8,4
1221,0.12461040948599558,-0.2949653518103582,-0.04357692714099673,0,4
1222,0.19677780449027288,-0.16916756353455378,0.08180561055930007,0,4
1223,0.278088399396742,-0.07867025196828138,0.1717180491044009,0,4
1224,0.37026172087429027,-0.02818624567625223,0.22211882706144045,0,4
1225,0.4645930559150812,-0.00439225676260851,0.2454492542553825,0,4
1226,0.5453908395021038,0.023050439403686642,0.26975603225822653,0,4
1227,0.6139790929233832,0.05888632174181938,0.30068410826339204,0,4
1228,0.6723985635902343,0.09212014590857676,0.3282612718110643,0,4
1229,0.719284585471252,0.11688512092815788,0.346809224482042,0,4
1230,0.7548614869559896,0.13386844700211153,0.3573060575210392,0,4
1231,0.7813120855668461,0.14551827505707715,0.3626637225668737,0,4
1232,0.8012092665478361,0.15373683344662584,0.3651538546873209,0,4
1233,0.8166489612466513,0.15962917586423495,0.36608380774941146,0,4
1234,0.8289717963291622,0.16387440747990623,0.3662092278102406,0,4
1235,0.8388664828568001,0.16698095449427472,0.36598041973417256,0,4
1236,0.8466701478609253,0.169376585726219,0.3657331709745535,0,4
1237,0.8526033906087142,0.1714217302587167,0.36576566564684515,0,4
1238,0.8569337371609451,0.17329974019458205,0.36625887400785107,0,4
1239,0.8600025495918813,0.17505185078431534,0.3672319309051099,0,4
1240,0.8621828350017249,0.17656335226217082,0.36853953161192,0,4
1241,0.8638032231138287,0.1776266944519001,0.3699128459686583,0,4
1242,0.8650972968512377,0.17811250815596585,0.37108941843275317,0,4
1243,0.8662001410753568,0.17797299950507814,0.3718853706201814,0,4
1244,0.867238555685092,0.17729522626460245,0.3722403044890813,0,4
1245,0.8683324893822136,0.17623046746850626,0.3722106418619396,0,4
1246,0.8696160934973524,0.1749805774292521,0.3719286376153539,0,4
1247,0.8711712949537217,0.17369392900730748,0.37152015883582673,0,4
1248,0.8730040493950344,0.17244298049891904,0.37109088870332035,0,4
1249,0.8750429244014405,0.17123859130291302,0.370742635736957,0,4
1250,0.877152549006509,0.17000752260272942,0.3705332932556415,0,4
1251,0.8792093904205533,0.16871399396151918,0.3704828745990621,0,4
1252,0.8811298292023112,0.16724370504158528,0.37061149412501154,0,4
1253,0.8828883520602104,0.16551541459696062,0.3708942280265426,0,4
1254,0.8844799358936594,0.1635389114482973,0.37131533313537085,0,4
1255,0.8859014652475088,0.16136609081896616,0.371893389345756,0,4
1256,0.8871469196196514,0.1591491988132311,0.37269759883897846,0,4
1257,0.8881911372098805,0.15711079066928132,0.3738093007806835,0,4
1258,0.8890027828883578,0.15545866898122399,0.3753211672982075,0,4
1259,0.8895505844019219,0.15431318477690967,0.3772497962211749,0,4
1260,0.8898537357562442,0.1537167046411078,0.3794836905007812,0,4
1261,0.8899042661891576,0.15359488725012932,0.3817627833715737,0,4
1262,0.8897589329287092,0.15375577466223084,0.38376220420496504,0,4
1263,0.8894955352481128,0.1538959063647791,0.3852052547813182,0,4
1264,0.8892128270025702,0.15352428798343332,0.38601900145065116,0,4
1265,0.8889607218293005,0.15193101927519173,0.38651287571572457,0,4
1266,0.8886028979351788,0.14818789649108027,0.38760320060043607,0,4
1267,0.8876829144439299,0.14103163079926864,0.3909581541042643,0,4
1268,0.8852518438823949,0.1284184585544034,0.39938971900240733,0,4
1269,0.8795058229203148,0.1065405929183536,0.41732180521489276,0,4
1270,0.8647600965865766,0.07594662846865728,0.44316564499229033,0,4
1271,0.8331061679436558,0.06337680198226686,0.45167794140391987,0,4
1272,0.8077224879222197,0.09584640797805219,0.4226199326299558,0,4
1273,0.799449272114324,0.13549907639916278,0.37710792980911395,0,4
1274,0.7855814737200614,0.13536324324735582,0.3372705997227107,0,4
1275,0.7851527574813397,0.08475058460428585,0.3088383433592921,0,4
1276,0.8245660907805616,-0.009128726425069325,0.34601872204995604,0,4
1277,0.8095388321054303,-0.1811310777977166,0.45188993760978163,0,4
1278,0.6956297650671043,-0.45497663949712785,0.6364966507492344,0,4
1279,0.49301921595002535,-0.8209611377191645,0.889700653225082,0,4
1280,0.16631166871158884,-1.2773240217422897,1.1807733662012767,8,0
1281,-0.31876569605039246,-1.7700428997985491,1.5180207131606251,8,0
1282,-0.9459586465775468,-2.290499454560242,1.84252109462347,8,0
1283,-1.7394092031218367,-2.837060858899177,2.0663893618464333,10,0
1284,-2.689363646757603,-3.4355313431287575,2.07454384984252,10,0
1285,-3.7941934474995693,-4.038013897465538,1.8301610440927059,10,2
1286,-5.0700966958359945,-4.584484850911562,1.320315503273768,10,2
1287,-6.514384146626077,-4.9724653079354235,0.5960025838306502,3,2
1288,-8.065893765404638,-5.069424647069981,-0.22991754693934427,3,2
1289,-9.593316681087728,-4.735584856081902,-1.002079764369974,3,2
1290,-10.881248993431765,-3.8909705468602724,-1.5908958579073118,3,2
1291,-11.684711576967034,-2.518164115677674,-1.908124878019435,7,2
1292,-11.796410107917838,-0.6685427914049485,-1.92010728246658,7,3
1293,-11.105354266116345,1.5171866630338848,-1.66649752430512,7,3
1294,-9.626864159758634,3.80031091393795,-1.2659424132389263,1,3
1295,-7.51144043206808,5.90060229450207,-0.8701210422724828,9,5
1296,-5.01904722449936,7.562564951336264,-0.6161515610222983,9,5
1297,-2.4778315154612636,8.619723546976315,-0.5748105009260318,6,1
1298,-0.21100617831900867,9.025715218289319,-0.7304563066314672,6,1
1299,1.55051200317122,8.84815631832402,-1.0038797832321416,2,1
1300,2.7109752537562954,8.232447718243506,-1.2951270715614198,2,1
1301,3.3077443842598617,7.351902025372493,-1.5231551597993171,2,1
1302,3.4654059934434303,6.376546843455649,-1.6357333802124854,2,6
1303,3.3506710987646557,5.434586942583387,-1.6273367039800555,2,6
1304,3.1155427628317494,4.5935103546713245,-1.528269014895116,5,6
1305,2.8590149442808555,3.881989251177444,-1.3670442686434827,5,6
1306,2.624803894393797,3.3048887542901375,-1.157192934604515,5,6
1307,2.420905935348426,2.841466656774619,-0.911909732298064,5,6
1308,2.2244696287837504,2.4457005489796013,-0.6607996618142089,5,6
1309,2.0390325418673716,2.08705777707064,-0.4329228915016464,5,6
1310,1.8699065759056672,1.7532483694084189,-0.24748554931681466,5,4
1311,1.7286623845790183,1.4076317704734644,-0.1411177498822912,5,4
1312,1.611124605933458,1.0736142947551968,-0.08170101186497934,0,4
1313,1.4931892584719535,0.8032301755935264,-0.010341328885835797,0,4
1314,1.3897811183249742,0.5895403472170655,0.06280415788493549,0,4
1315,1.3117739882025032,0.4267141252512624,0.1293251972094836,0,4
1316,1.256396991361235,0.30583000999405957,0.1858286660068931,0,4
1317,1.2148118623281932,0.21565591657172004,0.23094263805383405,0,4
1318,1.1781802566187103,0.15036731434154837,0.26139103771812217,0,4
1319,1.141321075301452,0.11434835348455079,0.2671392755124071,0,4
1320,1.1104375087719163,0.09435213688599703,0.2617717435214742,0,4
1321,1.0892343201502264,0.07520644596040132,0.25800761948145545,0,4
1322,1.0753817277519444,0.05562094158039449,0.2554999775103136,0,4
1323,1.0668679309419886,0.03620361440830035,0.25453844353724864,0,4
1324,1.0617787830205974,0.018099762398185712,0.25456153998024267,0,4
1325,1.0585584405530268,0.0021223980307407565,0.25484799300267263,0,4
1326,1.0562213594015581,-0.011813692494248275,0.25508228709071024,0,4
1327,1.0540951755205124,-0.02429343344195482,0.2549283277643885,0,4
1328,1.0516913230267837,-0.036047973414365754,0.2541747019452303,0,4
1329,1.0486315808678792,-0.04761978333764129,0.2528803810480157,0,4
1330,1.044615333985246,-0.05922502672966761,0.2514709218823743,0,4
1331,1.03938428924926,-0.0708620452908448,0.2505220934508445,0,4
1332,1.032758947578376,-0.08245888259279896,0.2504955685398887,0,4
1333,1.0245933963594467,-0.09416012687528309,0.2514767860182083,0,4
1334,1.0148151695563565,-0.10645186608534137,0.2531357776583982,0,4
1335,1.0034687970967717,-0.12008630391119876,0.25485237007162354,0,4
1336,0.9907194999249588,-0.13597287763224417,0.25591192277163255,0,4
1337,0.9767761012341504,-0.15498759909762935,0.2557122693463522,0,4
1338,0.9617331906177234,-0.17773323028139404,0.2539604643358288,0,4
1339,0.9453778213771589,-0.20448006668480315,0.25067316830220193,0,4
1340,0.9271710008147851,-0.23515911714324253,0.2461462754382484,0,4
1341,0.9063096479024523,-0.2695780161674225,0.24078323299855026,0,4
1342,0.8818433479739148,-0.30757591788008154,0.23497544114726757,0,4
1343,0.8528650004424123,-0.3491618463598401,0.22901137093150556,0,4
1344,0.8186792384544483,-0.3944772596833896,0.22311650293313642,0,4
1345,0.778934046041575,-0.4436798390854391,0.21751926176657066,0,4
1346,0.7336423630415989,-0.49680943907551944,0.21247156968603695,0,4
1347,0.6831013920689638,-0.553707423107478,0.20818577910911928,0,4
1348,0.6277671459344285,-0.6140555143453219,0.20467760100635207,0,4
1349,0.5680826556040314,-0.6774601771710516,0.20164154717521604,0,4
1350,0.5044425205895056,-0.7435493336792312,0.19848123820023464,0,4
1351,0.43726356597364346,-0.8119109134392658,0.19441648360282932,8,4
1352,0.36719828762844825,-0.8820048139039953,0.18875755197897912,8,4
1353,0.2952906385139999,-0.9530632067507403,0.1811006988536222,8,0
1354,0.22295838947730845,-1.023986215329756,0.17152620025192736,8,0
1355,0.15187522892098468,-1.0934104544005092,0.16060794226381558,8,0
1356,0.08365491813895863,-1.1598753107868638,0.1492647307196894,8,0
1357,0.01952668553931392,-1.2221008166763951,0.13836338766635148,8,0
1358,-0.039812378741891585,-1.2793622895789032,0.12843148718228048,8,0
1359,-0.09412486461287876,-1.3314800461429996,0.11945869238944945,8,0
1360,-0.14338712934744915,-1.3787275111972155,0.11108053034634147,8,0
1361,-0.18760965885399228,-1.4216018132992576,0.10274680877588287,8,0
1362,-0.22677702678550046,-1.4605238784153936,0.09400204855133361,8,0
1363,-0.2608837972412028,-1.4956663186748607,0.08449507854345757,8,0
1364,-0.2900610107828534,-1.5269475909566113,0.07409478948985222,8,0
1365,-0.31463975180568554,-1.5540342849260578,0.06285483885042158,8,0
1366,-0.335074509269992,-1.576498061079802,0.05117346404705858,8,0
1367,-0.35181706888210973,-1.59405500900792,0.039933500946769646,8,0
1368,-0.3650377169395737,-1.6070769802960811,0.03130234541711672,8,0
1369,-0.3741077680128186,-1.61755295706036,0.030029278402307468,8,0
1370,-0.38104843788120574,-1.6229117256710712,0.03320222215403752,8,0
1371,-0.3895738093226267,-1.6176465363628285,0.032171227134909976,8,0
1372,-0.3988187350804716,-1.6039691920536823,0.029311223297203,8,0
1373,-0.40865242166840016,-1.5829648424696612,0.023446935320152244,8,0
1374,-0.41980889221052164,-1.5550642178004848,0.01141686546672896,8,0
1375,-0.43374725252794716,-1.5206846272916184,-0.010152217977117978,8,0
1376,-0.4518464025243464,-1.4805250589888301,-0.04406830284810935,8,0
1377,-0.4750325158575257,-1.4358220704774758,-0.0914933562439336,8,0
1378,-0.5046014337069051,-1.3878000886002098,-0.1505121189681301,8,0
1379,-0.5439049345586245,-1.3357969186524756,-0.21498288416730385,8,0
1380,-0.6003166331421891,-1.2750287925147077,-0.2752156576068672,8,0
1381,-0.6806244645772601,-1.2023000202428116,-0.3254568534800111,8,0
1382,-0.7701139001325219,-1.1390048818458884,-0.38268102148603034,8,0
1383,-0.8388783570813064,-1.1190280888323234,-0.47389438264418915,8,0
1384,-0.8771579508748483,-1.149355690254643,-0.6021881871254436,8,0
1385,-0.8853356337166672,-1.2258995147706384,-0.7609697569628544,8,0
1386,-0.8642160738416288,-1.3462047157469914,-0.9453882984234049,4,0
1387,-0.814819201285354,-1.507421274842588,-1.1509477961315904,4,0
1388,-0.7403833065121262,-1.7012438110117079,-1.3693506797399468,4,0
1389,-0.6481349730340331,-1.9091832431352682,-1.5842979277631606,4,0
1390,-0.5489222100413209,-2.104146117108993,-1.7727258434878066,4,0
1391,-0.45275522781169364,-2.260255711712896,-1.913376188252318,4,0
1392,-0.3675620200199598,-2.3588662850279505,-1.991910880543744,4,0
1393,-0.30125619030487416,-2.386729183246037,-1.9987908594569324,4,0
1394,-0.2598738892512392,-2.337500965700145,-1.9306434397583898,4,0
1395,-0.24348963975408022,-2.2144013405099283,-1.7924540089779202,4,0
1396,-0.2420449339610486,-2.031989552986824,-1.5993485248052366,4,0
1397,-0.2396190143222634,-1.81157583091527,-1.3723677926024689,4,0
1398,-0.22789309084543707,-1.5719637429894333,-1.1312885090497864,4,0
1399,-0.20596369918098792,-1.3273047981574364,-0.8912085989231567,8,0
1400,-0.17331731905393585,-1.089564388530029,-0.6628297461167028,8,0
1401,-0.1279336993951506,-0.8681447547226545,-0.4525839493841338,8,0
1402,-0.06825708748967785,-0.6682847472362031,-0.2652209703218225,8,0
1403,0.0053089413526351695,-0.4926567907756883,-0.1044978994476195,8,4
1404,0.09142620500099402,-0.34481130138476895,0.026385710374774163,0,4
1405,0.19053846785812734,-0.23152324762455243,0.12223702738647943,0,4
1406,0.30342738081860426,-0.15957828393569815,0.177756793555249,0,4
1407,0.4159953075262795,-0.11672601415554963,0.20415321178915757,0,4
1408,0.5126498409256356,-0.07794966197668919,0.22452856704870683,0,4
1409,0.594570251267654,-0.03285579205001946,0.2506467320893133,0,4
1410,0.6648175683686822,0.011164826173899137,0.2769473440572464,0,4
1411,0.7223740363000996,0.046624504420623936,0.2964907440536742,0,4
1412,0.7668333713579657,0.07240453222448341,0.3082917859144152,0,4
1413,0.8004818102447218,0.09032562818111288,0.31434047039059454,0,4
1414,0.8265016955671053,0.10244140428265842,0.3167716246473394,0,4
1415,0.8473935221385029,0.11036272870759825,0.31707388553889815,0,4
1416,0.8646035585186542,0.11547345810374765,0.3163427222951063,0,4
1417,0.87872002447069,0.11898159358392114,0.31546812134529373,0,4
1418,0.8898970158118948,0.12185943545685834,0.31510358633410884,0,4
1419,0.898267624658343,0.12465060152064861,0.31553642501202567,0,4
1420,0.904131343886244,0.1275064470615588,0.3166858029455053,0,4
1421,0.9079089077833974,0.13022707737495964,0.31820068575960203,0,4
1422,0.9100729888377234,0.13257120682897294,0.3197074365009415,0,4
1423,0.9109727946577425,0.13440978057395378,0.32096661054174414,0,4
1424,0.9108516430632495,0.13581201262448478,0.32203516687224837,0,4
1425,0.9098024569055921,0.1370881510587495,0.3232306661935587,0,4
1426,0.9078706118831558,0.13861871680723328,0.3250157577372856,0,4
1427,0.905110522330596,0.14075278401027377,0.3277690168623399,0,4
1428,0.9016862000419861,0.14360894634703922,0.3316147806670247,0,4
1429,0.897821078225461,0.14706391163823307,0.3364092385588241,0,4
1430,0.8937463380399796,0.1508607655438636,0.3417650917367768,0,4
1431,0.8896204878512388,0.15470209356177,0.34731359605625556,0,4
1432,0.885442359158154,0.1583450593991979,0.3527348264378986,0,4
1433,0.8811544484402788,0.1616474397376553,0.35787105366637406,0,4
1434,0.8766284210234844,0.16454326358396223,0.3627130895640356,0,4
1435,0.8717912119232186,0.16703681410899826,0.36731081392153714,0,4
1436,0.8666052887350761,0.16914867011327453,0.37171902713880633,0,4
1437,0.8610682948906068,0.1709449918563025,0.37597264230775684,0,4
1438,0.8552100787445304,0.1725050959282245,0.38007102096934237,0,4
1439,0.849096269223863,0.1739442038328833,0.3839956956749479,0,4
1440,0.8428157318522981,0.17535508956847057,0.38776370955362904,0,4
1441,0.8365070690043244,0.17682725442148986,0.391411456791335,0,4
1442,0.8303007784324504,0.17838341267973631,0.3949451873350138,0,4
1443,0.8243997978630092,0.1799201923209719,0.39826193458248016,0,4
1444,0.8190899089452459,0.18119271197231973,0.4011742532842912,0,4
1445,0.8148287513432904,0.18172703317471403,0.4034722946644433,0,4
1446,0.8123007692019399,0.1809811220173757,0.4050566291344987,0,4
1447,0.8121935543290211,0.17838577359184865,0.40621253712997535,0,4
1448,0.8147328991731579,0.1735941008420051,0.40783778070579724,0,4
1449,0.8191424274982367,0.16655874436393,0.41175758985978084,0,4
1450,0.8232224593537762,0.15716903088007442,0.42099556584235553,0,4
1451,0.8243126038706599,0.1453565520388907,0.43778913384385204,0,4
1452,0.8211958851302226,0.13585507234306674,0.4491455860066909,0,4
1453,0.8224580419043744,0.12414914073386848,0.4484906796002722,0,4
1454,0.8331657356075017,0.10007509769980329,0.4368949619900172,0,4
1455,0.8541873790112513,0.05022422906056896,0.41490353625797427,0,4
1456,0.8817070708893309,-0.036282472407536015,0.38447184445985505,0,4
1457,0.9111586394013848,-0.16175341266877294,0.34841268741585246,0,4
1458,1.0290291525876893,-0.2794770559346521,0.3057604577230884,0,4
1459,1.301417703495315,-0.4299603950964286,0.3114749240612436,0,4
1460,1.5830995283595002,-0.6142592411755009,0.3721915680803237,0,4
1461,1.8448191454124567,-0.7990937030249792,0.45088635161134455,0,4
1462,2.024001278534034,-0.9953863864957824,0.5241680755843168,0,4
1463,2.072477880024245,-1.2327789136204748,0.5239137332480465,0,4
1464,1.9159193256475135,-1.512601583891447,0.4108436139680429,0,4
1465,1.396801310285149,-1.8666613829998944,0.16265898823560862,8,0
1466,0.43354474211960636,-2.260486053575889,-0.2019236173515075,8,0
1467,-0.9957874566139985,-2.555283153916307,-0.6648375693918208,4,0
1468,-2.881299333210617,-2.6232450078439786,-1.1232520064706883,4,0
1469,-5.116661532039953,-2.3443771757972787,-1.4418338291877446,10,2
1470,-7.496222673219243,-1.6397117250368647,-1.5167136423830585,3,2
1471,-9.729339523812024,-0.4899357735605227,-1.3018070341469339,7,3
1472,-11.483904493391451,1.0521211465567744,-0.8218771074969856,7,3
1473,-12.455195291895922,2.862584377954634,-0.18126148128580263,1,3
1474,-12.436227900133122,4.7704868902702176,0.4612742273495366,1,3
1475,-11.378237503524813,6.561155708484455,0.9407571776127448,1,3
1476,-9.42296558422618,7.996756979058572,1.1542962101279743,9,5
1477,-6.868442248277117,8.923022869057105,1.0582253895543459,9,5
1478,-4.113859026359858,9.28901273847921,0.692606484057659,6,5
1479,-1.561176566595192,9.140998232869423,0.16567165280951196,6,1
1480,0.48683657756773796,8.593227389880647,-0.3895270961464532,6,1
1481,1.8807300819572745,7.790185620973136,-0.8559600344883417,2,1
1482,2.6366467044268185,6.868250340593219,-1.1646930709974037,2,1
1483,2.898860246171893,5.930198349478895,-1.3053175853932497,2,6
1484,2.8530518232706625,5.047248420351705,-1.298392152721684,2,6
1485,2.663669456194172,4.268615082508588,-1.1785691041081536,5,6
1486,2.443534823906268,3.6167011961840076,-0.9859958401846523,5,6
1487,2.2498466488056486,3.0820760725370926,-0.7627274564027734,5,6
1488,2.076896276168899,2.6382046303190148,-0.5460185195040288,5,6
1489,1.84360890990983,2.2629759238816063,-0.3528769996380536,5,6
1490,1.6407416197173592,1.941232090844488,-0.17811828981374134,5,4
1491,1.5154162917237861,1.645601250586925,-0.03504461403826367,5,4
1492,1.4386887993115018,1.3230073239974385,0.0438558604287517,0,4
1493,1.3540919709056936,1.0129773284041201,0.09011819575439954,0,4
1494,1.2684068069087704,0.7525875173192913,0.13444772517239137,0,4
1495,1.200280693750949,0.5529646179294742,0.1821234451897334,0,4
1496,1.1517528516998528,0.40534451147314104,0.2262220296403344,0,4
1497,1.1160306201134889,0.2961258677604479,0.2646123845080361,0,4
1498,1.0879897884767258,0.21645095886162585,0.29437715116747487,0,4
1499,1.0640092149588964,0.16972441971118782,0.3015271639149861,0,4
1500,1.045637673060182,0.14519349297368034,0.29157249605382896,0,4
1501,1.0367430005424185,0.12171497414655379,0.28298290662904063,0,4
1502,1.0346285126640142,0.0963288223614737,0.27589524246795577,0,4
1503,1.0361826004183883,0.07105215219347635,0.26873973806934404,0,4
1504,1.0396060514775578,0.04678781592122729,0.26292449132786166,0,4
1505,1.0432894501767596,0.024676679290985038,0.25868671514460867,0,4
1506,1.0461245773685193,0.005526874313702345,0.2552493444055392,0,4
1507,1.0478072369176628,-0.01105762055497035,0.25216475904149255,0,4
1508,1.0484808656970765,-0.02607196824909553,0.249000378984388,0,4
1509,1.0484177511279809,-0.040696852075033874,0.24534949468832834,0,4
1510,1.047779225333063,-0.05584312749238998,0.24099684020134718,0,4
1511,1.0465015034527958,-0.07198449950507183,0.2360128899742276,0,4
1512,1.0443191141638093,-0.08910823438155863,0.23078843093876356,0,4
1513,1.0408626923351838,-0.10680988831172472,0.2258585631995414,0,4
1514,1.0358107087978843,-0.12460445272448469,0.2217889449537871,0,4
1515,1.028955083356281,-0.14212654670239938,0.2189420766654473,0,4
1516,1.0202547865264664,-0.15934757874606773,0.21735668620215415,0,4
1517,1.0097798821865727,-0.17663401852022043,0.2167237152664535,0,4
1518,0.9976831620864266,-0.19475060815778053,0.21639389532722358,0,4
1519,0.9841009842632263,-0.21467829018512868,0.21556012661353924,0,4
1520,0.9690419285895403,-0.23733688337707784,0.21351168359764275,0,4
1521,0.9523202419666531,-0.2633577879219491,0.2098270451412893,0,4
1522,0.9335096020648167,-0.2929904180489213,0.20445166643579582,0,4
1523,0.9120910883322585,-0.3262568373559835,0.19753652197948043,0,4
1524,0.8874905149117721,-0.36321258293961867,0.18916085563138565,0,4
1525,0.8591897143556703,-0.404167078308267,0.1791460835544411,0,4
1526,0.8267560262518328,-0.44968329325882456,0.16708289970388687,0,4
1527,0.7899144228619452,-0.5003572083204058,0.15258385746326866,0,4
1528,0.748616510982754,-0.5564836941695276,0.13563909072070604,0,4
1529,0.7030950665566571,-0.6178354822344277,0.11678730708325177,0,4
1530,0.6538002576674489,-0.6836611374048466,0.09700307189911114,0,4
1531,0.6012385640375488,-0.7529759872443369,0.0772980964345266,0,4
1532,0.545851011191351,-0.8248618778633244,0.058288781821712016,0,4
1533,0.4880145970052419,-0.8986089669871795,0.0400379726786752,8,4
1534,0.42820990040724344,-0.9736924315340147,0.02220487849069284,8,0
1535,0.3671322081170432,-1.0495563287003664,0.004317827712324485,8,0
1536,0.3057486133294425,-1.125444549207064,-0.013908965570569138,8,0
1537,0.24520611213062934,-1.2004609784859113,-0.03245105066449758,8,0
1538,0.18671450147560384,-1.2735368198265227,-0.05105774177566872,8,0
1539,0.13140825102801953,-1.343616519466407,-0.06932945849416083,8,0
1540,0.08018107927805171,-1.4098223567333257,-0.08691674387964075,8,0
1541,0.03361451500654788,-1.471508948118021,-0.10364548667336852,8,0
1542,-0.007977695778199227,-1.5282569070607184,-0.11956844069396266,8,0
1543,-0.044588078084951584,-1.5798826082968846,-0.13489222245813756,8,0
1544,-0.07636433933557217,-1.6262105004935545,-0.1498921742360951,8,0
1545,-0.10360002261000412,-1.6669886672055747,-0.16476304264923936,8,0
1546,-0.12668698571283726,-1.7017652487199666,-0.17947101435770346,8,0
1547,-0.1461708450814016,-1.7300336743716427,-0.19360785558285068,8,0
1548,-0.1626078182926745,-1.751520912251966,-0.20608805915044395,8,0
1549,-0.1761104733907868,-1.7672278195298519,-0.21391334914011037,8,0
1550,-0.18594080760266948,-1.7799572121031926,-0.21187781012291804,8,0
1551,-0.1956606277048285,-1.7848989291783288,-0.20806660423182405,8,0
1552,-0.2077116172841981,-1.7787842964559346,-0.20887297661691304,8,0
1553,-0.22113835260382933,-1.763816452333288,-0.21219685107766928,8,0
1554,-0.23687134104353869,-1.7396472101027125,-0.21958523720761874,8,0
1555,-0.25751005751426637,-1.7049570282069877,-0.2325890189197265,8,0
1556,-0.2858226691731035,-1.6584480597450266,-0.25192217294483904,8,0
1557,-0.3234749957362728,-1.599595839786518,-0.27756276538050156,8,0
1558,-0.3734027737009537,-1.5278450830361165,-0.30842568127704484,8,0
1559,-0.44302194623171254,-1.441799589784202,-0.34192975574936935,8,0
1560,-0.541267274813038,-1.34324769912536,-0.37701456110933607,8,0
1561,-0.6537777724816826,-1.2568968308520039,-0.4308656910151033,8,0
1562,-0.7520122477175393,-1.211977003061754,-0.522795979275344,8,0
1563,-0.8235777660485648,-1.2160610146480215,-0.652755235336914,8,0
1564,-0.8624337737146359,-1.2731497799360187,-0.8182640246375146,8,0
1565,-0.8634667071617393,-1.3876421746135408,-1.0184153606286097,4,0
1566,-0.823944437918017,-1.5573947485430824,-1.2477805267757462,4,0
1567,-0.7480367824284655,-1.767155518383335,-1.490669089309762,4,0
1568,-0.6460060269015985,-1.9894118071209907,-1.7219141698206477,4,0
1569,-0.5322701296271406,-2.191267178964256,-1.9131103262892855,4,0
1570,-0.42321476607932873,-2.3434483076419204,-2.040982946274558,4,0
1571,-0.3343046029514821,-2.42564457399517,-2.091637216876104,4,0
1572,-0.2743037438492934,-2.4279304415667613,-2.0611996146815854,4,0
1573,-0.2439534724387057,-2.350524269048999,-1.954991444177455,4,0
1574,-0.2399889613055932,-2.201023426909046,-1.7845355023835743,4,0
1575,-0.25574891675819145,-1.993522931286519,-1.5655446160984314,4,0
1576,-0.2791752869563755,-1.748386779674016,-1.3173544651407694,4,0
1577,-0.2968024931410457,-1.4880090259933534,-1.0601740088367504,4,0
1578,-0.3010219211300041,-1.2309480020846908,-0.8107645578825698,8,0
1579,-0.2885817280067129,-0.9903950469497464,-0.58061851762702,8,0
1580,-0.2565672745889212,-0.7740871141043092,-0.3758904442397448,8,0
1581,-0.20428219623046667,-0.5844818605232985,-0.19830133775054912,8,0
1582,-0.1335369184483399,-0.4217131334853191,-0.04760767780011249,8,4
1583,-0.04666846490466572,-0.2872252802300581,0.07481060550105921,0,4
1584,0.05559729445496694,-0.18659891147326413,0.16347849269275685,0,4
1585,0.17516480203024118,-0.12945270713602702,0.20948604528078577,0,4
1586,0.29716380843491275,-0.10131556782650548,0.22577041826734637,0,4
1587,0.4019923434217239,-0.06730916074400349,0.24485936411994208,0,4
1588,0.4929104633525179,-0.02499882370466173,0.27096868669973534,0,4
1589,0.5726946917892826,0.015084018736688964,0.2954893129505619,0,4
1590,0.6394995268658227,0.047908108785298956,0.3140665969945663,0,4
1591,0.6918495176623044,0.07288607366359356,0.32632895760759145,0,4
1592,0.7307890614445788,0.09128176432792176,0.33377026835502277,0,4
1593,0.7592352930212316,0.10475579264773736,0.33824208051677296,0,4
1594,0.7803829126003152,0.11465142958458226,0.3411846602781335,0,4
1595,0.7965417330401051,0.12202178830305183,0.34352459435499483,0,4
1596,0.8090040809442937,0.12768534610170085,0.3457947517615263,0,4
1597,0.8184549754388246,0.13219668543374538,0.3482341726032179,0,4
1598,0.8253791342402204,0.13584118262024816,0.35084217999403455,0,4
1599,0.8302420228871454,0.13879094451688465,0.35355041336004145,0,4
1600,0.8334988394309856,0.14113635469674268,0.3562438153400402,0,4
1601,0.8356264956302792,0.1430032872899262,0.3588872436889015,0,4
1602,0.837082914785226,0.1444850550414271,0.3614679729686773,0,4
1603,0.8382901463887542,0.14571390522422753,0.3640059171210406,0,4
1604,0.8395458650551183,0.1467523520629377,0.3665617086136697,0,4
1605,0.8410049213438728,0.14765839685582152,0.36920359068225383,0,4
1606,0.8426605788341383,0.1485148308014382,0.37196812412935715,0,4
1607,0.8443655983843283,0.14938484365699242,0.37484646022113965,0,4
1608,0.8459185653912369,0.150311358227216,0.37777122253974804,0,4
1609,0.8471623438861063,0.15136417961401777,0.38065062905435504,0,4
1610,0.8480239447203638,0.1525587071889831,0.3834622878887049,0,4
1611,0.8485957288964384,0.15388197501654605,0.38623448149177636,0,4
1612,0.8490400762197396,0.15526718499091138,0.3890630022116155,0,4
1613,0.8495246391916071,0.15657989656448318,0.39198784247428753,0,4
1614,0.8501200541244955,0.15766185164103427,0.39495936570656104,0,4
1615,0.8507764872856701,0.15840147436319973,0.39779509845875527,0,4
1616,0.8513423257120409,0.15868006855207997,0.40026690645804847,0,4
1617,0.8516431814108997,0.15848640372005826,0.40220069836153405,0,4
1618,0.8515203882648668,0.15788544588571957,0.4035928225832427,0,4
1619,0.8509347323243289,0.1570328212802391,0.404526897687942,0,4
1620,0.8499389418614456,0.15612078473395669,0.4052295756726249,0,4
1621,0.8486663360179777,0.15536279850849205,0.405868931098562,0,4
1622,0.8472902005900127,0.15490881110395405,0.4064822848034418,0,4
1623,0.8459393200705971,0.1548095393156178,0.4069464074081107,0,4
1624,0.8447474815723848,0.1549278085355161,0.4069800981245323,0,4
1625,0.8438143106726609,0.15484906006855895,0.40627419077293825,0,4
1626,0.8432681469793927,0.15391952332328002,0.40463474826015866,0,4
1627,0.8431729513477486,0.15120396927614685,0.4022709695384845,0,4
1628,0.8434665917325127,0.14549295600623802,0.4000193430518641,0,4
1629,0.8437941402173932,0.13526706139088268,0.39951861797441174,0,4
1630,0.8432634966302283,0.11821913644521388,0.40367753750015045,0,4
1631,0.8397178683900836,0.09054497687515643,0.4170718288631655,0,4
1632,0.825026896722245,0.05506391301151127,0.43537385428671305,0,4
1633,0.7898289416092185,0.03605335362599889,0.4370528389717758,0,4
1634,0.7626601768398303,0.06214702683378797,0.39937026210644083,0,4
1635,0.7620376446988375,0.0943909480802965,0.34067808691901014,0,4
1636,0.7648234837793223,0.07981014723039893,0.2831086286366494,0,4
1637,0.7742976065730983,0.0195866577557816,0.2514053864792593,0,4
1638,0.8279974247943085,-0.07482262975737132,0.3130594574932253,0,4
1639,0.8076365038777409,-0.2701590001597133,0.4336562565392231,0,4
1640,0.6747585012124129,-0.5664646111953031,0.639609310073935,0,4
1641,0.425024167819581,-0.9665415276750906,0.9079580899051397,8,4
1642,0.044025376052922435,-1.4669697971548659,1.2065167842431919,8,0
1643,-0.47575314438903255,-1.9983738584153676,1.5330871345055128,8,0
1644,-1.1420030944646982,-2.5492573841743864,1.8104009793996862,8,0
1645,-1.9711914224174898,-3.1369846438340394,1.926030424681549,10,0
1646,-2.9610536408640167,-3.73571224632606,1.8189949646397352,10,0
1647,-4.126018874029447,-4.314329609707231,1.4490947570027013,10,2
1648,-5.480902635861675,-4.810047535728484,0.8228245016227534,10,2
1649,-6.98784979509489,-5.089239717846605,0.041816717707328775,3,2
1650,-8.577440842256399,-4.985738481214565,-0.7367284013924227,3,2
1651,-10.081057344546497,-4.384548034668153,-1.3681892158227116,3,2
1652,-11.233029987984581,-3.26754123222484,-1.7736468767109124,3,2
1653,-11.801354496609205,-1.6383999000799476,-1.8874233271871912,7,3
1654,-11.612715781793451,0.4126943751800145,-1.7130509728163006,7,3
1655,-10.6052085744717,2.699704419929966,-1.3285974356068937,7,3
1656,-8.853594093299545,4.963228185429036,-0.8668317607064214,1,3
1657,-6.561034025389651,6.924734865330545,-0.4771610029122157,9,5
1658,-4.030280268991218,8.357088263640968,-0.27545146723185443,6,5
1659,-1.60190043726514,9.138604791012755,-0.2998795802683179,6,1
1660,0.43262481710283013,9.27073645590765,-0.5057167907098377,6,1
1661,1.9090856001054244,8.859077704808445,-0.8024678822825599,2,1
1662,2.8053068813396402,8.068176712046075,-1.098942825506173,2,1
1663,3.208147200445401,7.083917526112041,-1.3235157894603446,2,1
1664,3.265562475437052,6.079739364260705,-1.4345605993061374,2,6
1665,3.12331784668563,5.159019545053452,-1.4373811131299885,2,6
1666,2.907553051581831,4.359830426213131,-1.364341177292521,5,6
1667,2.6903118290323995,3.7053676015748596,-1.2236354909189096,5,6
1668,2.4929448116574777,3.1903475507551113,-1.018864469493303,5,6
1669,2.3105005850726172,2.7661879644382057,-0.782755381162359,5,6
1670,2.1109929530990446,2.391418092821502,-0.5488630684051248,5,6
1671,1.9322008512561426,2.0503686094907354,-0.33944267873393397,5,6
1672,1.7646248193512004,1.7323712105218774,-0.16376571094486303,5,4
1673,1.6476800394930506,1.3959341891219608,-0.05760030603615716,0,4
1674,1.5430554710699416,1.0738466872260788,0.0046036418518136816,0,4
1675,1.441712302058838,0.8064809210243515,0.06238400946694539,0,4
1676,1.3556028185028806,0.598894409596893,0.11974948549395098,0,4
1677,1.2905917502292301,0.440674114592252,0.17070200155705736,0,4
1678,1.242193401544912,0.32133740281733447,0.21436334255218767,0,4
1679,1.2026503764655843,0.23127674737954185,0.25107238574113677,0,4
1680,1.165381725056276,0.16871685312649223,0.27372023291421094,0,4
1681,1.129243176199591,0.13697204431924712,0.27349157019361364,0,4
1682,1.1022765615808137,0.11686380784073291,0.26954504763127274,0,4
1683,1.0851508607118563,0.09650783195291815,0.26897050806063216,0,4
1684,1.0744325001637012,0.07622470441381622,0.26904934435982947,0,4
1685,1.0677486269399696,0.05716404032418104,0.2690233270781539,0,4
1686,1.063759371455159,0.0395533444107358,0.2696538624304892,0,4
1687,1.061234153147705,0.023695040666989634,0.27060007583692514,0,4
1688,1.0592991231826756,0.00937002527596191,0.2711734290008035,0,4
1689,1.057425106782766,-0.00431710810893109,0.2708992365991388,0,4
1690,1.055237948765918,-0.018293815802123317,0.2694581661349126,0,4
1691,1.0523975016036466,-0.0332894943723323,0.26677091355709753,0,4
1692,1.048604000162046,-0.049636972408340224,0.2630048241074984,0,4
1693,1.043612614933409,-0.06733673944345933,0.25851997528252463,0,4
1694,1.0373045825695173,-0.08617400075294088,0.2537888182885051,0,4
1695,1.0296598115957127,-0.10589846546128955,0.24925962355784378,0,4
1696,1.0207957173528635,-0.12639964354780844,0.24525503915823607,0,4
1697,1.0109172503590003,-0.14787785727005376,0.24184565898399446,0,4
1698,1.000229957308366,-0.17085011086708685,0.23881860421234563,0,4
1699,0.9887592926901958,-0.1960042866687819,0.23579234594361398,0,4
1700,0.9761989677620653,-0.2238783854791813,0.23246810585164843,0,4
1701,0.9619047284003482,-0.2547361013298452,0.22873326686715587,0,4
1702,0.9450883601004795,-0.2885664954592026,0.22469745291884244,0,4
1703,0.9250526546976964,-0.32527378762824255,0.22057606672878038,0,4
1704,0.9013573227397452,-0.3648627510388407,0.21658411187391285,0,4
1705,0.8738473876876245,-0.4075249401053607,0.21285226954726902,0,4
1706,0.8424772932004315,-0.4535835845301153,0.2094452154641363,0,4
1707,0.8071495968720502,-0.5033914772740787,0.20633992525221423,0,4
1708,0.7675948095653459,-0.5572145699388772,0.20340499130563955,0,4
1709,0.723415108493879,-0.6151246571242992,0.20038977411438855,0,4
1710,0.674203268681254,-0.6768858992075246,0.19698845191137312,0,4
1711,0.6197903076648957,-0.7419315640805961,0.19297458542978826,0,4
1712,0.5603749724434947,-0.8093349779845515,0.18825587923859693,0,4
1713,0.4966075915147425,-0.8780212319952804,0.18287875787350794,8,4
1714,0.4296092413420501,-0.9468511442961496,0.17684791068429695,8,4
1715,0.36075550744486173,-1.014983818635675,0.17005533640426182,8,0
1716,0.29154021930099727,-1.081861909337811,0.1621390561175346,8,0
1717,0.2233210344867654,-1.1471763893783729,0.15262938403634738,8,0
1718,0.1572254153807978,-1.2106506879295678,0.1412285104784408,8,0
1719,0.09414277303585981,-1.2718095948364654,0.12806865240676998,8,0
1720,0.034763559927316175,-1.329998164746664,0.11376182654490824,8,0
1721,-0.020310703895583045,-1.3844833697868182,0.0991474029499378,8,0
1722,-0.07065528338700085,-1.4347164692803829,0.08500357385302018,8,0
1723,-0.11611504117213853,-1.4804302040347277,0.07177570308091251,8,0
1724,-0.15676564475571678,-1.5216185005009448,0.0595726162021652,8,0
1725,-0.19282077860975436,-1.5583518730663142,0.04829743392945158,8,0
1726,-0.22451214676354758,-1.5906886826803603,0.03782610915813903,8,0
1727,-0.2519982978909295,-1.618602183293712,0.02809112579280107,8,0
1728,-0.27539124267698717,-1.6419133403886088,0.019102294104419125,8,0
1729,-0.2948731441668724,-1.6603434530847676,0.011038659116501011,8,0
1730,-0.3107632100308801,-1.673514851111424,0.004221191281915101,8,0
1731,-0.3234948750227363,-1.6810122867999637,-0.0008534332642824551,8,0
1732,-0.3335771077706896,-1.6826195121420398,-0.0033376779621432625,8,0
1733,-0.3412727146500448,-1.6787011846331579,-0.0016200377696578155,8,0
1734,-0.34618122437596904,-1.6708154786736076,0.007491710867137427,8,0
1735,-0.34922536401316695,-1.6584236754762034,0.023190614522067585,8,0
1736,-0.3540519737659038,-1.6362843455697924,0.036234028048124124,8,0
1737,-0.3610798305769254,-1.6050781634300313,0.04576819998857734,8,0
1738,-0.37040391432898123,-1.5666841933297673,0.05108009092684476,8,0
1739,-0.38255049253014256,-1.5223051729581356,0.0485415692250014,8,0
1740,-0.3977305934931605,-1.4733394036702527,0.034055621248973905,8,0
1741,-0.41597142014564586,-1.4212214723644467,0.00446637333298535,8,0
1742,-0.4379212841401951,-1.366936585691035,-0.04128596734561224,8,0
1743,-0.46579391791974234,-1.3097514795560583,-0.10060544448817754,8,0
1744,-0.5047991260711742,-1.2449914276004437,-0.16555355862883447,8,0
1745,-0.5617106583508591,-1.1655753470384878,-0.22519314274695545,8,0
1746,-0.6307262654967262,-1.0791791138500277,-0.28193734857337494,8,0
1747,-0.6860594779880971,-1.0178818466746746,-0.35993520860868183,8,0
1748,-0.7133483284372256,-1.0019657002394784,-0.4733160385166369,8,0
1749,-0.7138407737372473,-1.0324214489664598,-0.6193648183037608,8,0
1750,-0.6903141156720053,-1.1065253635284291,-0.7924389573860864,8,0
1751,-0.6436038600322475,-1.2222028124157942,-0.9882112972058203,4,0
1752,-0.5745907701441921,-1.3753591189407641,-1.2013344931718624,4,0
1753,-0.48843852580486846,-1.5537918394902361,-1.4200382415684347,4,0
1754,-0.39492454824197654,-1.7352386584267165,-1.6243684522362392,4,0
1755,-0.3040654938375299,-1.895659878817413,-1.7935345212224962,4,0
1756,-0.2224370715465696,-2.0167257213711975,-1.9128894963354204,4,0
1757,-0.15665060251381605,-2.0837109025207976,-1.9714208450743982,4,0
1758,-0.11223344385598455,-2.0839575892416686,-1.9601170600871751,4,0
1759,-0.08824881295628005,-2.0115121129902103,-1.8754944381238599,4,0
1760,-0.07502004881982234,-1.8718051164183482,-1.7240683250985405,4,0
1761,-0.06068775290404822,-1.68042571893397,-1.5215642655109183,4,0
1762,-0.039988947834116356,-1.4561526130614357,-1.2872692797286698,4,0
1763,-0.012869612548751814,-1.2169469409653615,-1.0397993132505168,4,0
1764,0.01965697026305147,-0.9783470196989666,-0.7948383799434828,8,0
1765,0.057834303147169974,-0.7530003924241485,-0.563889750716869,8,0
1766,0.10319400268698004,-0.5503696894589315,-0.3547209174469005,8,0
1767,0.15716477485764221,-0.37650269980828066,-0.17308790440288113,0,4
1768,0.2201116882019709,-0.23482344248319362,-0.023519262967077976,0,4
1769,0.29231668774570263,-0.12817234804898897,0.09015668474497573,0,4
1770,0.37616975354760207,-0.06094442214175359,0.16359567717740958,0,4
1771,0.4701425479152436,-0.031203799561207883,0.1987034437978917,0,4
1772,0.5568987408336454,-0.012724116613913566,0.21974381447557917,0,4
1773,0.6269490130863258,0.017473007758096994,0.248856494961871,0,4
1774,0.6843397144097559,0.05317695356640962,0.2810990968577431,0,4
1775,0.7308035548140162,0.0828660595336375,0.30597182898142233,0,4
1776,0.7669942938767463,0.10405707548174832,0.3218043896218387,0,4
1777,0.7946681907425309,0.1187209661830648,0.33127159410397033,0,4
1778,0.8159434517068075,0.1289621400588693,0.33694427792950465,0,4
1779,0.8326443444924576,0.13611072106076894,0.3404385788715595,0,4
1780,0.8461151200584897,0.14105104961596263,0.342662720754696,0,4
1781,0.8571217561150143,0.1445371101572018,0.3442953229183255,0,4
1782,0.8660117863061021,0.14724282108001252,0.3459344272482458,0,4
1783,0.872905395724087,0.149781053236267,0.34806957500471086,0,4
